frequency,raw
20.00,-1.68
20.20,-1.68
20.40,-1.68
20.61,-1.68
20.81,-1.68
21.02,-1.68
21.23,-1.67
21.44,-1.67
21.66,-1.67
21.87,-1.66
22.09,-1.66
22.31,-1.65
22.54,-1.64
22.76,-1.64
22.99,-1.63
23.22,-1.62
23.45,-1.61
23.69,-1.60
23.92,-1.59
24.16,-1.58
24.40,-1.57
24.65,-1.56
24.89,-1.55
25.14,-1.54
25.39,-1.53
25.65,-1.52
25.91,-1.51
26.16,-1.50
26.43,-1.48
26.69,-1.47
26.96,-1.46
27.23,-1.45
27.50,-1.43
27.77,-1.42
28.05,-1.40
28.33,-1.39
28.62,-1.38
28.90,-1.36
29.19,-1.35
29.48,-1.33
29.78,-1.32
30.08,-1.30
30.38,-1.29
30.68,-1.27
30.99,-1.26
31.30,-1.25
31.61,-1.23
31.93,-1.22
32.24,-1.20
32.57,-1.19
32.89,-1.18
33.22,-1.16
33.55,-1.15
33.89,-1.14
34.23,-1.14
34.57,-1.13
34.92,-1.12
35.27,-1.12
35.62,-1.11
35.97,-1.11
36.33,-1.10
36.70,-1.10
37.06,-1.09
37.43,-1.09
37.81,-1.08
38.19,-1.08
38.57,-1.07
38.95,-1.06
39.34,-1.05
39.74,-1.04
40.14,-1.03
40.54,-1.01
40.94,-1.00
41.35,-0.99
41.76,-0.97
42.18,-0.96
42.60,-0.94
43.03,-0.93
43.46,-0.91
43.90,-0.90
44.33,-0.88
44.78,-0.87
45.23,-0.85
45.68,-0.83
46.13,-0.81
46.60,-0.79
47.06,-0.77
47.53,-0.76
48.01,-0.75
48.49,-0.74
48.97,-0.73
49.46,-0.72
49.96,-0.72
50.46,-0.72
50.96,-0.72
51.47,-0.72
51.99,-0.72
52.51,-0.72
53.03,-0.72
53.56,-0.72
54.10,-0.72
54.64,-0.71
55.18,-0.70
55.74,-0.68
56.29,-0.66
56.86,-0.64
57.42,-0.62
58.00,-0.60
58.58,-0.58
59.16,-0.56
59.76,-0.54
60.35,-0.52
60.96,-0.51
61.57,-0.49
62.18,-0.47
62.80,-0.46
63.43,-0.44
64.07,-0.42
64.71,-0.41
65.35,-0.39
66.01,-0.37
66.67,-0.35
67.33,-0.34
68.01,-0.33
68.69,-0.32
69.37,-0.31
70.07,-0.30
70.77,-0.30
71.48,-0.31
72.19,-0.31
72.91,-0.32
73.64,-0.34
74.38,-0.36
75.12,-0.38
75.87,-0.40
76.63,-0.43
77.40,-0.46
78.17,-0.50
78.95,-0.53
79.74,-0.57
80.54,-0.61
81.35,-0.65
82.16,-0.68
82.98,-0.71
83.81,-0.74
84.65,-0.76
85.50,-0.77
86.35,-0.78
87.22,-0.78
88.09,-0.77
88.97,-0.76
89.86,-0.74
90.76,-0.72
91.66,-0.69
92.58,-0.67
93.51,-0.64
94.44,-0.61
95.39,-0.58
96.34,-0.56
97.30,-0.54
98.28,-0.53
99.26,-0.52
100.25,-0.52
101.25,-0.53
102.27,-0.55
103.29,-0.57
104.32,-0.59
105.37,-0.62
106.42,-0.66
107.48,-0.70
108.56,-0.73
109.64,-0.77
110.74,-0.81
111.85,-0.84
112.97,-0.87
114.10,-0.89
115.24,-0.91
116.39,-0.92
117.55,-0.92
118.73,-0.92
119.92,-0.91
121.12,-0.89
122.33,-0.87
123.55,-0.84
124.79,-0.81
126.03,-0.77
127.29,-0.74
128.57,-0.70
129.85,-0.66
131.15,-0.63
132.46,-0.60
133.79,-0.57
135.12,-0.54
136.48,-0.52
137.84,-0.51
139.22,-0.49
140.61,-0.49
142.02,-0.48
143.44,-0.48
144.87,-0.49
146.32,-0.49
147.78,-0.50
149.26,-0.51
150.75,-0.52
152.26,-0.52
153.78,-0.53
155.32,-0.54
156.88,-0.55
158.44,-0.55
160.03,-0.56
161.63,-0.56
163.24,-0.56
164.88,-0.55
166.53,-0.55
168.19,-0.54
169.87,-0.53
171.57,-0.52
173.29,-0.50
175.02,-0.49
176.77,-0.48
178.54,-0.47
180.32,-0.46
182.13,-0.45
183.95,-0.45
185.79,-0.44
187.65,-0.43
189.52,-0.43
191.42,-0.42
193.33,-0.42
195.27,-0.41
197.22,-0.40
199.19,-0.40
201.18,-0.39
203.19,-0.38
205.23,-0.37
207.28,-0.37
209.35,-0.36
211.44,-0.35
213.56,-0.34
215.69,-0.34
217.85,-0.33
220.03,-0.32
222.23,-0.32
224.45,-0.31
226.70,-0.30
228.96,-0.30
231.25,-0.29
233.57,-0.29
235.90,-0.28
238.26,-0.28
240.64,-0.28
243.05,-0.28
245.48,-0.28
247.93,-0.28
250.41,-0.28
252.92,-0.29
255.45,-0.29
258.00,-0.30
260.58,-0.30
263.19,-0.30
265.82,-0.30
268.48,-0.30
271.16,-0.30
273.87,-0.29
276.61,-0.28
279.38,-0.27
282.17,-0.25
284.99,-0.24
287.84,-0.22
290.72,-0.20
293.63,-0.17
296.57,-0.15
299.53,-0.12
302.53,-0.10
305.55,-0.07
308.61,-0.05
311.69,-0.02
314.81,-0.00
317.96,0.02
321.14,0.04
324.35,0.05
327.59,0.06
330.87,0.07
334.18,0.07
337.52,0.08
340.90,0.08
344.30,0.07
347.75,0.07
351.23,0.06
354.74,0.06
358.28,0.06
361.87,0.05
365.49,0.05
369.14,0.05
372.83,0.06
376.56,0.06
380.33,0.07
384.13,0.07
387.97,0.08
391.85,0.08
395.77,0.09
399.73,0.09
403.72,0.09
407.76,0.09
411.84,0.09
415.96,0.09
420.12,0.09
424.32,0.08
428.56,0.07
432.85,0.05
437.18,0.04
441.55,0.03
445.96,0.01
450.42,0.00
454.93,-0.01
459.48,-0.02
464.07,-0.03
468.71,-0.04
473.40,-0.05
478.13,-0.05
482.91,-0.06
487.74,-0.06
492.62,-0.06
497.55,-0.06
502.52,-0.06
507.55,-0.05
512.62,-0.05
517.75,-0.04
522.93,-0.03
528.16,-0.03
533.44,-0.02
538.77,-0.02
544.16,-0.02
549.60,-0.02
555.10,-0.02
560.65,-0.02
566.25,-0.02
571.92,-0.02
577.64,-0.02
583.41,-0.02
589.25,-0.02
595.14,-0.03
601.09,-0.03
607.10,-0.03
613.17,-0.04
619.30,-0.04
625.50,-0.04
631.75,-0.04
638.07,-0.04
644.45,-0.04
650.89,-0.03
657.40,-0.02
663.98,-0.02
670.62,-0.01
677.32,0.01
684.10,0.02
690.94,0.03
697.85,0.04
704.83,0.06
711.87,0.07
718.99,0.08
726.18,0.09
733.44,0.10
740.78,0.10
748.19,0.11
755.67,0.11
763.23,0.12
770.86,0.13
778.57,0.13
786.35,0.14
794.22,0.14
802.16,0.15
810.18,0.15
818.28,0.15
826.46,0.15
834.73,0.14
843.08,0.12
851.51,0.10
860.02,0.08
868.62,0.05
877.31,0.02
886.08,-0.01
894.94,-0.03
903.89,-0.06
912.93,-0.08
922.06,-0.09
931.28,-0.10
940.59,-0.10
950.00,-0.10
959.50,-0.09
969.09,-0.07
978.78,-0.05
988.57,-0.03
998.46,-0.01
1008.44,0.02
1018.53,0.04
1028.71,0.06
1039.00,0.08
1049.39,0.10
1059.88,0.11
1070.48,0.12
1081.19,0.14
1092.00,0.15
1102.92,0.16
1113.95,0.17
1125.09,0.18
1136.34,0.19
1147.70,0.19
1159.18,0.19
1170.77,0.19
1182.48,0.19
1194.30,0.19
1206.25,0.18
1218.31,0.17
1230.49,0.16
1242.80,0.14
1255.22,0.13
1267.78,0.11
1280.45,0.09
1293.26,0.08
1306.19,0.06
1319.25,0.04
1332.45,0.02
1345.77,-0.00
1359.23,-0.03
1372.82,-0.05
1386.55,-0.08
1400.41,-0.11
1414.42,-0.14
1428.56,-0.16
1442.85,-0.19
1457.28,-0.21
1471.85,-0.23
1486.57,-0.24
1501.43,-0.25
1516.45,-0.25
1531.61,-0.24
1546.93,-0.23
1562.40,-0.22
1578.02,-0.20
1593.80,-0.19
1609.74,-0.17
1625.84,-0.15
1642.10,-0.14
1658.52,-0.12
1675.10,-0.11
1691.85,-0.10
1708.77,-0.09
1725.86,-0.09
1743.12,-0.09
1760.55,-0.09
1778.15,-0.10
1795.94,-0.10
1813.90,-0.11
1832.03,-0.11
1850.36,-0.12
1868.86,-0.12
1887.55,-0.11
1906.42,-0.10
1925.49,-0.09
1944.74,-0.08
1964.19,-0.06
1983.83,-0.04
2003.67,-0.01
2023.71,0.02
2043.94,0.05
2064.38,0.09
2085.03,0.12
2105.88,0.15
2126.94,0.18
2148.20,0.21
2169.69,0.23
2191.38,0.25
2213.30,0.27
2235.43,0.28
2257.78,0.29
2280.36,0.30
2303.17,0.31
2326.20,0.32
2349.46,0.33
2372.95,0.34
2396.68,0.35
2420.65,0.37
2444.86,0.38
2469.31,0.39
2494.00,0.41
2518.94,0.42
2544.13,0.43
2569.57,0.45
2595.27,0.46
2621.22,0.47
2647.43,0.49
2673.90,0.50
2700.64,0.51
2727.65,0.52
2754.93,0.52
2782.48,0.53
2810.30,0.53
2838.40,0.53
2866.79,0.52
2895.46,0.52
2924.41,0.51
2953.65,0.50
2983.19,0.49
3013.02,0.48
3043.15,0.46
3073.58,0.44
3104.32,0.42
3135.36,0.40
3166.72,0.38
3198.38,0.37
3230.37,0.36
3262.67,0.37
3295.30,0.38
3328.25,0.40
3361.53,0.43
3395.15,0.46
3429.10,0.50
3463.39,0.54
3498.03,0.59
3533.01,0.63
3568.34,0.68
3604.02,0.72
3640.06,0.75
3676.46,0.77
3713.22,0.77
3750.36,0.75
3787.86,0.71
3825.74,0.65
3864.00,0.58
3902.64,0.50
3941.66,0.41
3981.08,0.32
4020.89,0.22
4061.10,0.13
4101.71,0.04
4142.73,-0.06
4184.15,-0.15
4226.00,-0.24
4268.26,-0.32
4310.94,-0.39
4354.05,-0.45
4397.59,-0.49
4441.56,-0.53
4485.98,-0.56
4530.84,-0.57
4576.15,-0.57
4621.91,-0.57
4668.13,-0.55
4714.81,-0.52
4761.96,-0.48
4809.58,-0.44
4857.67,-0.38
4906.25,-0.32
4955.31,-0.26
5004.87,-0.20
5054.91,-0.15
5105.46,-0.10
5156.52,-0.05
5208.08,-0.02
5260.16,0.01
5312.77,0.04
5365.89,0.06
5419.55,0.08
5473.75,0.10
5528.49,0.13
5583.77,0.15
5639.61,0.17
5696.00,0.19
5752.96,0.20
5810.49,0.21
5868.60,0.21
5927.28,0.21
5986.56,0.21
6046.42,0.20
6106.89,0.18
6167.96,0.15
6229.64,0.12
6291.93,0.07
6354.85,0.01
6418.40,-0.06
6482.58,-0.14
6547.41,-0.22
6612.88,-0.30
6679.01,-0.38
6745.80,-0.45
6813.26,-0.52
6881.39,-0.57
6950.21,-0.62
7019.71,-0.65
7089.91,-0.67
7160.81,-0.68
7232.41,-0.67
7304.74,-0.63
7377.79,-0.58
7451.56,-0.50
7526.08,-0.41
7601.34,-0.30
7677.35,-0.18
7754.13,-0.05
7831.67,0.09
7909.98,0.24
7989.08,0.39
8068.98,0.54
8149.67,0.70
8231.16,0.88
8313.47,1.07
8396.61,1.27
8480.57,1.49
8565.38,1.70
8651.03,1.91
8737.54,2.08
8824.92,2.22
8913.17,2.31
9002.30,2.36
9092.32,2.36
9183.25,2.31
9275.08,2.21
9367.83,2.08
9461.51,1.92
9556.12,1.74
9651.68,1.57
9748.20,1.40
9845.68,1.25
9944.14,1.13
10043.58,1.04
10144.02,1.00
10245.46,1.00
10347.91,1.03
10451.39,1.09
10555.91,1.16
10661.46,1.23
10768.08,1.29
10875.76,1.34
10984.52,1.36
11094.36,1.37
11205.31,1.36
11317.36,1.35
11430.53,1.34
11544.84,1.35
11660.29,1.39
11776.89,1.46
11894.66,1.56
12013.60,1.70
12133.74,1.86
12255.08,2.03
12377.63,2.20
12501.41,2.35
12626.42,2.47
12752.68,2.56
12880.21,2.62
13009.01,2.66
13139.10,2.69
13270.49,2.71
13403.20,2.74
13537.23,2.79
13672.60,2.88
13809.33,3.00
13947.42,3.16
14086.90,3.35
14227.77,3.56
14370.04,3.78
14513.74,4.02
14658.88,4.25
14805.47,4.48
14953.52,4.70
15103.06,4.89
15254.09,5.05
15406.63,5.19
15560.70,5.29
15716.30,5.37
15873.47,5.43
16032.20,5.47
16192.52,5.50
16354.45,5.51
16517.99,5.49
16683.17,5.45
16850.01,5.41
17018.51,5.36
17188.69,5.32
17360.58,5.32
17534.18,5.35
17709.53,5.44
17886.62,5.58
18065.49,5.79
18246.14,6.04
18428.60,6.33
18612.89,6.66
18799.02,7.03
18987.01,7.44
19176.88,7.90
19368.65,8.39
19562.33,8.92
19757.96,9.50
19955.54,10.11
