frequency,raw
20.00,0.43
20.20,0.42
20.40,0.41
20.61,0.40
20.81,0.39
21.02,0.38
21.23,0.37
21.44,0.36
21.66,0.35
21.87,0.34
22.09,0.33
22.31,0.33
22.54,0.32
22.76,0.32
22.99,0.32
23.22,0.31
23.45,0.30
23.69,0.29
23.92,0.28
24.16,0.26
24.40,0.25
24.65,0.23
24.89,0.22
25.14,0.21
25.39,0.21
25.65,0.21
25.91,0.21
26.16,0.21
26.43,0.22
26.69,0.23
26.96,0.25
27.23,0.26
27.50,0.27
27.77,0.28
28.05,0.29
28.33,0.29
28.62,0.29
28.90,0.29
29.19,0.28
29.48,0.27
29.78,0.26
30.08,0.25
30.38,0.24
30.68,0.23
30.99,0.22
31.30,0.22
31.61,0.21
31.93,0.21
32.24,0.21
32.57,0.21
32.89,0.21
33.22,0.21
33.55,0.21
33.89,0.21
34.23,0.21
34.57,0.22
34.92,0.22
35.27,0.22
35.62,0.22
35.97,0.22
36.33,0.22
36.70,0.21
37.06,0.21
37.43,0.20
37.81,0.19
38.19,0.19
38.57,0.18
38.95,0.17
39.34,0.16
39.74,0.15
40.14,0.14
40.54,0.14
40.94,0.13
41.35,0.13
41.76,0.13
42.18,0.13
42.60,0.14
43.03,0.14
43.46,0.14
43.90,0.14
44.33,0.13
44.78,0.12
45.23,0.11
45.68,0.10
46.13,0.09
46.60,0.08
47.06,0.08
47.53,0.08
48.01,0.07
48.49,0.07
48.97,0.07
49.46,0.07
49.96,0.08
50.46,0.08
50.96,0.09
51.47,0.09
51.99,0.10
52.51,0.10
53.03,0.11
53.56,0.11
54.10,0.11
54.64,0.11
55.18,0.11
55.74,0.11
56.29,0.11
56.86,0.11
57.42,0.12
58.00,0.12
58.58,0.12
59.16,0.12
59.76,0.11
60.35,0.11
60.96,0.11
61.57,0.10
62.18,0.10
62.80,0.09
63.43,0.09
64.07,0.08
64.71,0.08
65.35,0.07
66.01,0.07
66.67,0.06
67.33,0.05
68.01,0.04
68.69,0.04
69.37,0.03
70.07,0.02
70.77,0.02
71.48,0.01
72.19,0.01
72.91,0.01
73.64,0.00
74.38,-0.00
75.12,-0.01
75.87,-0.01
76.63,-0.01
77.40,-0.01
78.17,-0.01
78.95,-0.01
79.74,-0.02
80.54,-0.02
81.35,-0.02
82.16,-0.03
82.98,-0.03
83.81,-0.03
84.65,-0.04
85.50,-0.04
86.35,-0.04
87.22,-0.05
88.09,-0.05
88.97,-0.05
89.86,-0.05
90.76,-0.04
91.66,-0.02
92.58,0.01
93.51,0.04
94.44,0.08
95.39,0.11
96.34,0.13
97.30,0.15
98.28,0.17
99.26,0.18
100.25,0.18
101.25,0.18
102.27,0.17
103.29,0.15
104.32,0.13
105.37,0.10
106.42,0.07
107.48,0.04
108.56,-0.00
109.64,-0.03
110.74,-0.06
111.85,-0.07
112.97,-0.08
114.10,-0.07
115.24,-0.07
116.39,-0.06
117.55,-0.05
118.73,-0.04
119.92,-0.04
121.12,-0.03
122.33,-0.02
123.55,-0.02
124.79,-0.01
126.03,-0.01
127.29,-0.00
128.57,-0.00
129.85,-0.00
131.15,-0.01
132.46,-0.01
133.79,-0.01
135.12,-0.01
136.48,-0.01
137.84,-0.00
139.22,0.00
140.61,0.01
142.02,0.01
143.44,0.01
144.87,0.02
146.32,0.03
147.78,0.03
149.26,0.03
150.75,0.03
152.26,0.03
153.78,0.03
155.32,0.03
156.88,0.02
158.44,0.01
160.03,0.00
161.63,-0.01
163.24,-0.02
164.88,-0.03
166.53,-0.04
168.19,-0.05
169.87,-0.06
171.57,-0.07
173.29,-0.08
175.02,-0.09
176.77,-0.10
178.54,-0.10
180.32,-0.11
182.13,-0.11
183.95,-0.11
185.79,-0.11
187.65,-0.10
189.52,-0.10
191.42,-0.09
193.33,-0.08
195.27,-0.07
197.22,-0.05
199.19,-0.04
201.18,-0.02
203.19,-0.00
205.23,0.01
207.28,0.03
209.35,0.05
211.44,0.06
213.56,0.08
215.69,0.09
217.85,0.10
220.03,0.11
222.23,0.12
224.45,0.12
226.70,0.13
228.96,0.13
231.25,0.13
233.57,0.13
235.90,0.13
238.26,0.13
240.64,0.13
243.05,0.13
245.48,0.14
247.93,0.14
250.41,0.14
252.92,0.15
255.45,0.15
258.00,0.15
260.58,0.16
263.19,0.16
265.82,0.16
268.48,0.17
271.16,0.17
273.87,0.17
276.61,0.16
279.38,0.16
282.17,0.16
284.99,0.16
287.84,0.15
290.72,0.15
293.63,0.15
296.57,0.15
299.53,0.15
302.53,0.15
305.55,0.15
308.61,0.15
311.69,0.15
314.81,0.15
317.96,0.16
321.14,0.16
324.35,0.17
327.59,0.17
330.87,0.18
334.18,0.19
337.52,0.19
340.90,0.20
344.30,0.21
347.75,0.21
351.23,0.22
354.74,0.22
358.28,0.23
361.87,0.23
365.49,0.24
369.14,0.24
372.83,0.25
376.56,0.25
380.33,0.25
384.13,0.25
387.97,0.26
391.85,0.26
395.77,0.27
399.73,0.27
403.72,0.27
407.76,0.28
411.84,0.28
415.96,0.29
420.12,0.29
424.32,0.30
428.56,0.30
432.85,0.31
437.18,0.31
441.55,0.31
445.96,0.32
450.42,0.32
454.93,0.33
459.48,0.33
464.07,0.34
468.71,0.35
473.40,0.35
478.13,0.36
482.91,0.36
487.74,0.37
492.62,0.38
497.55,0.38
502.52,0.39
507.55,0.40
512.62,0.41
517.75,0.41
522.93,0.42
528.16,0.42
533.44,0.43
538.77,0.43
544.16,0.43
549.60,0.44
555.10,0.44
560.65,0.44
566.25,0.44
571.92,0.44
577.64,0.45
583.41,0.44
589.25,0.44
595.14,0.44
601.09,0.44
607.10,0.44
613.17,0.44
619.30,0.44
625.50,0.44
631.75,0.44
638.07,0.44
644.45,0.44
650.89,0.44
657.40,0.44
663.98,0.44
670.62,0.44
677.32,0.44
684.10,0.44
690.94,0.44
697.85,0.44
704.83,0.44
711.87,0.44
718.99,0.44
726.18,0.43
733.44,0.43
740.78,0.42
748.19,0.42
755.67,0.41
763.23,0.41
770.86,0.41
778.57,0.41
786.35,0.42
794.22,0.42
802.16,0.43
810.18,0.44
818.28,0.45
826.46,0.47
834.73,0.48
843.08,0.50
851.51,0.52
860.02,0.54
868.62,0.56
877.31,0.57
886.08,0.59
894.94,0.60
903.89,0.61
912.93,0.63
922.06,0.64
931.28,0.66
940.59,0.67
950.00,0.69
959.50,0.70
969.09,0.72
978.78,0.74
988.57,0.75
998.46,0.76
1008.44,0.77
1018.53,0.78
1028.71,0.78
1039.00,0.79
1049.39,0.79
1059.88,0.79
1070.48,0.79
1081.19,0.79
1092.00,0.78
1102.92,0.77
1113.95,0.76
1125.09,0.75
1136.34,0.73
1147.70,0.71
1159.18,0.69
1170.77,0.67
1182.48,0.65
1194.30,0.63
1206.25,0.60
1218.31,0.57
1230.49,0.53
1242.80,0.50
1255.22,0.46
1267.78,0.43
1280.45,0.39
1293.26,0.36
1306.19,0.33
1319.25,0.30
1332.45,0.28
1345.77,0.25
1359.23,0.22
1372.82,0.19
1386.55,0.16
1400.41,0.14
1414.42,0.11
1428.56,0.08
1442.85,0.06
1457.28,0.04
1471.85,0.02
1486.57,0.00
1501.43,-0.02
1516.45,-0.04
1531.61,-0.06
1546.93,-0.08
1562.40,-0.09
1578.02,-0.11
1593.80,-0.13
1609.74,-0.14
1625.84,-0.16
1642.10,-0.17
1658.52,-0.18
1675.10,-0.19
1691.85,-0.20
1708.77,-0.22
1725.86,-0.23
1743.12,-0.25
1760.55,-0.26
1778.15,-0.28
1795.94,-0.29
1813.90,-0.30
1832.03,-0.32
1850.36,-0.33
1868.86,-0.35
1887.55,-0.36
1906.42,-0.38
1925.49,-0.39
1944.74,-0.40
1964.19,-0.42
1983.83,-0.43
2003.67,-0.44
2023.71,-0.46
2043.94,-0.47
2064.38,-0.47
2085.03,-0.48
2105.88,-0.49
2126.94,-0.50
2148.20,-0.50
2169.69,-0.50
2191.38,-0.51
2213.30,-0.50
2235.43,-0.50
2257.78,-0.49
2280.36,-0.48
2303.17,-0.47
2326.20,-0.45
2349.46,-0.43
2372.95,-0.41
2396.68,-0.38
2420.65,-0.36
2444.86,-0.34
2469.31,-0.31
2494.00,-0.29
2518.94,-0.28
2544.13,-0.26
2569.57,-0.24
2595.27,-0.23
2621.22,-0.21
2647.43,-0.20
2673.90,-0.19
2700.64,-0.19
2727.65,-0.18
2754.93,-0.17
2782.48,-0.15
2810.30,-0.14
2838.40,-0.12
2866.79,-0.10
2895.46,-0.08
2924.41,-0.06
2953.65,-0.04
2983.19,-0.01
3013.02,0.01
3043.15,0.04
3073.58,0.06
3104.32,0.09
3135.36,0.11
3166.72,0.13
3198.38,0.14
3230.37,0.16
3262.67,0.17
3295.30,0.17
3328.25,0.17
3361.53,0.17
3395.15,0.17
3429.10,0.16
3463.39,0.15
3498.03,0.14
3533.01,0.13
3568.34,0.11
3604.02,0.10
3640.06,0.08
3676.46,0.06
3713.22,0.04
3750.36,0.02
3787.86,-0.00
3825.74,-0.03
3864.00,-0.05
3902.64,-0.07
3941.66,-0.09
3981.08,-0.11
4020.89,-0.13
4061.10,-0.15
4101.71,-0.18
4142.73,-0.21
4184.15,-0.23
4226.00,-0.26
4268.26,-0.28
4310.94,-0.30
4354.05,-0.33
4397.59,-0.35
4441.56,-0.37
4485.98,-0.38
4530.84,-0.39
4576.15,-0.40
4621.91,-0.41
4668.13,-0.40
4714.81,-0.40
4761.96,-0.39
4809.58,-0.37
4857.67,-0.36
4906.25,-0.34
4955.31,-0.32
5004.87,-0.30
5054.91,-0.29
5105.46,-0.28
5156.52,-0.28
5208.08,-0.28
5260.16,-0.28
5312.77,-0.29
5365.89,-0.31
5419.55,-0.35
5473.75,-0.39
5528.49,-0.44
5583.77,-0.49
5639.61,-0.55
5696.00,-0.62
5752.96,-0.68
5810.49,-0.75
5868.60,-0.83
5927.28,-0.90
5986.56,-0.97
6046.42,-1.04
6106.89,-1.11
6167.96,-1.18
6229.64,-1.25
6291.93,-1.33
6354.85,-1.41
6418.40,-1.49
6482.58,-1.58
6547.41,-1.68
6612.88,-1.79
6679.01,-1.92
6745.80,-2.06
6813.26,-2.21
6881.39,-2.38
6950.21,-2.56
7019.71,-2.76
7089.91,-2.98
7160.81,-3.23
7232.41,-3.49
7304.74,-3.76
7377.79,-4.04
7451.56,-4.31
7526.08,-4.58
7601.34,-4.83
7677.35,-5.02
7754.13,-5.16
7831.67,-5.23
7909.98,-5.21
7989.08,-5.10
8068.98,-4.89
8149.67,-4.56
8231.16,-4.13
8313.47,-3.59
8396.61,-2.95
8480.57,-2.21
8565.38,-1.40
8651.03,-0.53
8737.54,0.38
8824.92,1.30
8913.17,2.21
9002.30,3.09
9092.32,3.93
9183.25,4.70
9275.08,5.39
9367.83,6.00
9461.51,6.54
9556.12,6.99
9651.68,7.36
9748.20,7.65
9845.68,7.87
9944.14,8.04
10043.58,8.15
10144.02,8.23
10245.46,8.30
10347.91,8.36
10451.39,8.42
10555.91,8.50
10661.46,8.59
10768.08,8.70
10875.76,8.82
10984.52,8.93
11094.36,9.04
11205.31,9.16
11317.36,9.21
11430.53,9.19
11544.84,9.11
11660.29,8.98
11776.89,8.77
11894.66,8.50
12013.60,8.17
12133.74,7.77
12255.08,7.31
12377.63,6.80
12501.41,6.25
12626.42,5.66
12752.68,5.05
12880.21,4.44
13009.01,3.82
13139.10,3.23
13270.49,2.66
13403.20,2.10
13537.23,1.58
13672.60,1.08
13809.33,0.63
13947.42,0.23
14086.90,-0.17
14227.77,-0.55
14370.04,-0.95
14513.74,-1.36
14658.88,-1.74
14805.47,-2.09
14953.52,-2.41
15103.06,-2.71
15254.09,-2.99
15406.63,-3.24
15560.70,-3.43
15716.30,-3.58
15873.47,-3.79
16032.20,-4.04
16192.52,-4.28
16354.45,-4.44
16517.99,-4.59
16683.17,-4.70
16850.01,-4.77
17018.51,-4.77
17188.69,-4.65
17360.58,-4.47
17534.18,-4.24
17709.53,-3.98
17886.62,-3.65
18065.49,-3.27
18246.14,-2.83
18428.60,-2.33
18612.89,-1.77
18799.02,-1.15
18987.01,-0.47
19176.88,0.27
19368.65,1.07
19562.33,1.93
19757.96,2.85
19955.54,3.83
