frequency,raw
20.00,-2.73
20.20,-2.76
20.40,-2.79
20.61,-2.82
20.81,-2.85
21.02,-2.88
21.23,-2.90
21.44,-2.93
21.66,-2.95
21.87,-2.97
22.09,-2.99
22.31,-3.01
22.54,-3.03
22.76,-3.04
22.99,-3.05
23.22,-3.07
23.45,-3.08
23.69,-3.10
23.92,-3.11
24.16,-3.12
24.40,-3.14
24.65,-3.15
24.89,-3.16
25.14,-3.18
25.39,-3.19
25.65,-3.21
25.91,-3.22
26.16,-3.24
26.43,-3.25
26.69,-3.26
26.96,-3.27
27.23,-3.28
27.50,-3.30
27.77,-3.31
28.05,-3.32
28.33,-3.33
28.62,-3.34
28.90,-3.35
29.19,-3.36
29.48,-3.37
29.78,-3.38
30.08,-3.38
30.38,-3.39
30.68,-3.40
30.99,-3.41
31.30,-3.42
31.61,-3.43
31.93,-3.44
32.24,-3.45
32.57,-3.47
32.89,-3.48
33.22,-3.49
33.55,-3.50
33.89,-3.52
34.23,-3.53
34.57,-3.55
34.92,-3.56
35.27,-3.58
35.62,-3.59
35.97,-3.60
36.33,-3.61
36.70,-3.63
37.06,-3.64
37.43,-3.65
37.81,-3.66
38.19,-3.67
38.57,-3.68
38.95,-3.69
39.34,-3.70
39.74,-3.71
40.14,-3.71
40.54,-3.72
40.94,-3.72
41.35,-3.73
41.76,-3.73
42.18,-3.73
42.60,-3.73
43.03,-3.73
43.46,-3.74
43.90,-3.74
44.33,-3.75
44.78,-3.75
45.23,-3.76
45.68,-3.76
46.13,-3.77
46.60,-3.78
47.06,-3.79
47.53,-3.80
48.01,-3.82
48.49,-3.83
48.97,-3.84
49.46,-3.85
49.96,-3.86
50.46,-3.86
50.96,-3.87
51.47,-3.87
51.99,-3.88
52.51,-3.89
53.03,-3.90
53.56,-3.90
54.10,-3.91
54.64,-3.91
55.18,-3.92
55.74,-3.92
56.29,-3.92
56.86,-3.92
57.42,-3.92
58.00,-3.93
58.58,-3.93
59.16,-3.93
59.76,-3.94
60.35,-3.94
60.96,-3.95
61.57,-3.95
62.18,-3.96
62.80,-3.97
63.43,-3.98
64.07,-3.98
64.71,-3.99
65.35,-4.00
66.01,-4.01
66.67,-4.02
67.33,-4.03
68.01,-4.03
68.69,-4.04
69.37,-4.05
70.07,-4.06
70.77,-4.06
71.48,-4.07
72.19,-4.08
72.91,-4.09
73.64,-4.09
74.38,-4.10
75.12,-4.11
75.87,-4.11
76.63,-4.12
77.40,-4.13
78.17,-4.14
78.95,-4.14
79.74,-4.15
80.54,-4.16
81.35,-4.17
82.16,-4.17
82.98,-4.18
83.81,-4.19
84.65,-4.19
85.50,-4.19
86.35,-4.20
87.22,-4.20
88.09,-4.21
88.97,-4.22
89.86,-4.22
90.76,-4.23
91.66,-4.24
92.58,-4.25
93.51,-4.26
94.44,-4.27
95.39,-4.28
96.34,-4.29
97.30,-4.30
98.28,-4.32
99.26,-4.33
100.25,-4.34
101.25,-4.35
102.27,-4.36
103.29,-4.37
104.32,-4.38
105.37,-4.38
106.42,-4.39
107.48,-4.40
108.56,-4.41
109.64,-4.41
110.74,-4.42
111.85,-4.42
112.97,-4.42
114.10,-4.43
115.24,-4.43
116.39,-4.42
117.55,-4.42
118.73,-4.42
119.92,-4.41
121.12,-4.41
122.33,-4.40
123.55,-4.39
124.79,-4.38
126.03,-4.37
127.29,-4.36
128.57,-4.35
129.85,-4.33
131.15,-4.32
132.46,-4.31
133.79,-4.29
135.12,-4.28
136.48,-4.26
137.84,-4.24
139.22,-4.22
140.61,-4.20
142.02,-4.18
143.44,-4.16
144.87,-4.13
146.32,-4.11
147.78,-4.08
149.26,-4.06
150.75,-4.03
152.26,-4.01
153.78,-3.98
155.32,-3.95
156.88,-3.93
158.44,-3.90
160.03,-3.88
161.63,-3.86
163.24,-3.84
164.88,-3.81
166.53,-3.79
168.19,-3.76
169.87,-3.74
171.57,-3.72
173.29,-3.70
175.02,-3.68
176.77,-3.66
178.54,-3.64
180.32,-3.62
182.13,-3.60
183.95,-3.59
185.79,-3.58
187.65,-3.57
189.52,-3.56
191.42,-3.55
193.33,-3.54
195.27,-3.53
197.22,-3.53
199.19,-3.52
201.18,-3.51
203.19,-3.51
205.23,-3.50
207.28,-3.50
209.35,-3.50
211.44,-3.49
213.56,-3.49
215.69,-3.49
217.85,-3.49
220.03,-3.49
222.23,-3.49
224.45,-3.50
226.70,-3.50
228.96,-3.51
231.25,-3.52
233.57,-3.53
235.90,-3.55
238.26,-3.56
240.64,-3.57
243.05,-3.58
245.48,-3.59
247.93,-3.61
250.41,-3.62
252.92,-3.64
255.45,-3.65
258.00,-3.66
260.58,-3.68
263.19,-3.70
265.82,-3.71
268.48,-3.73
271.16,-3.74
273.87,-3.75
276.61,-3.77
279.38,-3.78
282.17,-3.80
284.99,-3.80
287.84,-3.81
290.72,-3.83
293.63,-3.85
296.57,-3.86
299.53,-3.87
302.53,-3.89
305.55,-3.90
308.61,-3.92
311.69,-3.94
314.81,-3.96
317.96,-3.98
321.14,-4.00
324.35,-4.02
327.59,-4.04
330.87,-4.06
334.18,-4.08
337.52,-4.10
340.90,-4.12
344.30,-4.14
347.75,-4.16
351.23,-4.19
354.74,-4.20
358.28,-4.23
361.87,-4.25
365.49,-4.27
369.14,-4.30
372.83,-4.30
376.56,-4.32
380.33,-4.32
384.13,-4.34
387.97,-4.33
391.85,-4.31
395.77,-4.30
399.73,-4.27
403.72,-4.24
407.76,-4.20
411.84,-4.16
415.96,-4.10
420.12,-4.05
424.32,-3.98
428.56,-3.90
432.85,-3.82
437.18,-3.75
441.55,-3.66
445.96,-3.57
450.42,-3.48
454.93,-3.39
459.48,-3.30
464.07,-3.22
468.71,-3.14
473.40,-3.06
478.13,-2.97
482.91,-2.90
487.74,-2.82
492.62,-2.75
497.55,-2.68
502.52,-2.62
507.55,-2.54
512.62,-2.48
517.75,-2.42
522.93,-2.36
528.16,-2.30
533.44,-2.24
538.77,-2.19
544.16,-2.11
549.60,-2.05
555.10,-1.98
560.65,-1.91
566.25,-1.84
571.92,-1.78
577.64,-1.72
583.41,-1.65
589.25,-1.58
595.14,-1.52
601.09,-1.45
607.10,-1.38
613.17,-1.32
619.30,-1.25
625.50,-1.18
631.75,-1.13
638.07,-1.06
644.45,-1.01
650.89,-0.96
657.40,-0.90
663.98,-0.85
670.62,-0.80
677.32,-0.75
684.10,-0.69
690.94,-0.64
697.85,-0.60
704.83,-0.54
711.87,-0.49
718.99,-0.45
726.18,-0.39
733.44,-0.34
740.78,-0.30
748.19,-0.24
755.67,-0.19
763.23,-0.14
770.86,-0.09
778.57,-0.03
786.35,0.01
794.22,0.08
802.16,0.12
810.18,0.17
818.28,0.23
826.46,0.27
834.73,0.34
843.08,0.38
851.51,0.44
860.02,0.49
868.62,0.55
877.31,0.60
886.08,0.65
894.94,0.70
903.89,0.74
912.93,0.80
922.06,0.85
931.28,0.90
940.59,0.95
950.00,0.98
959.50,1.04
969.09,1.09
978.78,1.13
988.57,1.17
998.46,1.20
1008.44,1.24
1018.53,1.27
1028.71,1.30
1039.00,1.31
1049.39,1.33
1059.88,1.35
1070.48,1.38
1081.19,1.38
1092.00,1.40
1102.92,1.42
1113.95,1.41
1125.09,1.42
1136.34,1.42
1147.70,1.44
1159.18,1.45
1170.77,1.46
1182.48,1.48
1194.30,1.50
1206.25,1.53
1218.31,1.55
1230.49,1.56
1242.80,1.57
1255.22,1.59
1267.78,1.63
1280.45,1.65
1293.26,1.70
1306.19,1.73
1319.25,1.79
1332.45,1.83
1345.77,1.89
1359.23,1.94
1372.82,2.00
1386.55,2.06
1400.41,2.12
1414.42,2.18
1428.56,2.24
1442.85,2.30
1457.28,2.38
1471.85,2.45
1486.57,2.53
1501.43,2.61
1516.45,2.69
1531.61,2.78
1546.93,2.87
1562.40,2.96
1578.02,3.04
1593.80,3.12
1609.74,3.21
1625.84,3.31
1642.10,3.42
1658.52,3.51
1675.10,3.61
1691.85,3.70
1708.77,3.81
1725.86,3.93
1743.12,4.03
1760.55,4.14
1778.15,4.25
1795.94,4.35
1813.90,4.48
1832.03,4.59
1850.36,4.72
1868.86,4.84
1887.55,4.96
1906.42,5.08
1925.49,5.20
1944.74,5.32
1964.19,5.45
1983.83,5.57
2003.67,5.69
2023.71,5.81
2043.94,5.92
2064.38,6.02
2085.03,6.13
2105.88,6.26
2126.94,6.37
2148.20,6.48
2169.69,6.59
2191.38,6.71
2213.30,6.83
2235.43,6.94
2257.78,7.05
2280.36,7.16
2303.17,7.27
2326.20,7.38
2349.46,7.51
2372.95,7.60
2396.68,7.69
2420.65,7.79
2444.86,7.88
2469.31,7.96
2494.00,8.07
2518.94,8.15
2544.13,8.22
2569.57,8.30
2595.27,8.39
2621.22,8.48
2647.43,8.55
2673.90,8.62
2700.64,8.68
2727.65,8.76
2754.93,8.82
2782.48,8.89
2810.30,8.96
2838.40,8.99
2866.79,9.04
2895.46,9.09
2924.41,9.15
2953.65,9.19
2983.19,9.24
3013.02,9.29
3043.15,9.32
3073.58,9.35
3104.32,9.40
3135.36,9.44
3166.72,9.46
3198.38,9.47
3230.37,9.48
3262.67,9.48
3295.30,9.50
3328.25,9.51
3361.53,9.50
3395.15,9.50
3429.10,9.50
3463.39,9.49
3498.03,9.48
3533.01,9.48
3568.34,9.47
3604.02,9.45
3640.06,9.44
3676.46,9.42
3713.22,9.41
3750.36,9.40
3787.86,9.37
3825.74,9.36
3864.00,9.33
3902.64,9.29
3941.66,9.26
3981.08,9.24
4020.89,9.20
4061.10,9.16
4101.71,9.10
4142.73,9.07
4184.15,9.01
4226.00,8.98
4268.26,8.94
4310.94,8.89
4354.05,8.85
4397.59,8.81
4441.56,8.78
4485.98,8.75
4530.84,8.72
4576.15,8.70
4621.91,8.68
4668.13,8.67
4714.81,8.65
4761.96,8.62
4809.58,8.62
4857.67,8.60
4906.25,8.59
4955.31,8.57
5004.87,8.57
5054.91,8.59
5105.46,8.60
5156.52,8.62
5208.08,8.65
5260.16,8.68
5312.77,8.71
5365.89,8.72
5419.55,8.74
5473.75,8.78
5528.49,8.81
5583.77,8.86
5639.61,8.89
5696.00,8.95
5752.96,9.00
5810.49,9.05
5868.60,9.09
5927.28,9.13
5986.56,9.18
6046.42,9.20
6106.89,9.20
6167.96,9.23
6229.64,9.25
6291.93,9.27
6354.85,9.29
6418.40,9.31
6482.58,9.32
6547.41,9.34
6612.88,9.35
6679.01,9.35
6745.80,9.31
6813.26,9.24
6881.39,9.15
6950.21,9.03
7019.71,8.86
7089.91,8.64
7160.81,8.34
7232.41,7.97
7304.74,7.54
7377.79,7.07
7451.56,6.52
7526.08,5.94
7601.34,5.34
7677.35,4.76
7754.13,4.20
7831.67,3.68
7909.98,3.22
7989.08,2.83
8068.98,2.51
8149.67,2.26
8231.16,2.11
8313.47,2.05
8396.61,2.08
8480.57,2.19
8565.38,2.34
8651.03,2.55
8737.54,2.79
8824.92,3.06
8913.17,3.31
9002.30,3.57
9092.32,3.80
9183.25,4.01
9275.08,4.17
9367.83,4.31
9461.51,4.47
9556.12,4.60
9651.68,4.72
9748.20,4.82
9845.68,4.92
9944.14,5.02
10043.58,5.10
10144.02,5.21
10245.46,5.31
10347.91,5.41
10451.39,5.51
10555.91,5.59
10661.46,5.66
10768.08,5.70
10875.76,5.71
10984.52,5.72
11094.36,5.69
11205.31,5.63
11317.36,5.53
11430.53,5.41
11544.84,5.25
11660.29,5.07
11776.89,4.86
11894.66,4.63
12013.60,4.36
12133.74,4.07
12255.08,3.74
12377.63,3.40
12501.41,3.03
12626.42,2.64
12752.68,2.24
12880.21,1.82
13009.01,1.39
13139.10,0.95
13270.49,0.51
13403.20,0.08
13537.23,-0.37
13672.60,-0.81
13809.33,-1.23
13947.42,-1.63
14086.90,-2.02
14227.77,-2.36
14370.04,-2.70
14513.74,-3.04
14658.88,-3.38
14805.47,-3.75
14953.52,-4.13
15103.06,-4.56
15254.09,-5.05
15406.63,-5.56
15560.70,-6.11
15716.30,-6.69
15873.47,-7.30
16032.20,-7.97
16192.52,-8.76
16354.45,-9.58
16517.99,-10.43
16683.17,-11.30
16850.01,-12.16
17018.51,-13.02
17188.69,-13.94
17360.58,-14.85
17534.18,-15.70
17709.53,-16.48
17886.62,-17.21
18065.49,-17.91
18246.14,-18.62
18428.60,-19.31
18612.89,-19.93
18799.02,-20.52
18987.01,-21.05
19176.88,-21.62
19368.65,-22.16
19562.33,-22.64
19757.96,-23.07
19955.54,-23.46
