frequency,raw
20.00,1.88
20.20,1.85
20.40,1.83
20.61,1.80
20.81,1.78
21.02,1.75
21.23,1.73
21.44,1.71
21.66,1.69
21.87,1.67
22.09,1.65
22.31,1.63
22.54,1.62
22.76,1.61
22.99,1.59
23.22,1.58
23.45,1.56
23.69,1.55
23.92,1.53
24.16,1.52
24.40,1.50
24.65,1.48
24.89,1.47
25.14,1.45
25.39,1.43
25.65,1.41
25.91,1.40
26.16,1.38
26.43,1.37
26.69,1.36
26.96,1.35
27.23,1.34
27.50,1.33
27.77,1.33
28.05,1.32
28.33,1.31
28.62,1.31
28.90,1.30
29.19,1.29
29.48,1.29
29.78,1.28
30.08,1.27
30.38,1.27
30.68,1.26
30.99,1.25
31.30,1.24
31.61,1.24
31.93,1.23
32.24,1.22
32.57,1.21
32.89,1.20
33.22,1.18
33.55,1.17
33.89,1.16
34.23,1.15
34.57,1.13
34.92,1.12
35.27,1.10
35.62,1.09
35.97,1.08
36.33,1.07
36.70,1.06
37.06,1.05
37.43,1.04
37.81,1.02
38.19,1.01
38.57,1.00
38.95,0.99
39.34,0.98
39.74,0.97
40.14,0.97
40.54,0.96
40.94,0.96
41.35,0.97
41.76,0.97
42.18,0.97
42.60,0.97
43.03,0.97
43.46,0.97
43.90,0.97
44.33,0.96
44.78,0.96
45.23,0.95
45.68,0.94
46.13,0.93
46.60,0.91
47.06,0.90
47.53,0.88
48.01,0.87
48.49,0.86
48.97,0.85
49.46,0.85
49.96,0.84
50.46,0.84
50.96,0.84
51.47,0.85
51.99,0.85
52.51,0.85
53.03,0.84
53.56,0.84
54.10,0.84
54.64,0.84
55.18,0.83
55.74,0.83
56.29,0.82
56.86,0.82
57.42,0.81
58.00,0.81
58.58,0.80
59.16,0.79
59.76,0.79
60.35,0.78
60.96,0.77
61.57,0.76
62.18,0.75
62.80,0.74
63.43,0.73
64.07,0.72
64.71,0.72
65.35,0.71
66.01,0.70
66.67,0.69
67.33,0.68
68.01,0.67
68.69,0.66
69.37,0.65
70.07,0.64
70.77,0.63
71.48,0.62
72.19,0.61
72.91,0.59
73.64,0.58
74.38,0.57
75.12,0.56
75.87,0.55
76.63,0.54
77.40,0.53
78.17,0.52
78.95,0.52
79.74,0.52
80.54,0.52
81.35,0.52
82.16,0.52
82.98,0.53
83.81,0.53
84.65,0.54
85.50,0.55
86.35,0.56
87.22,0.57
88.09,0.57
88.97,0.57
89.86,0.57
90.76,0.57
91.66,0.57
92.58,0.56
93.51,0.56
94.44,0.55
95.39,0.53
96.34,0.52
97.30,0.51
98.28,0.50
99.26,0.50
100.25,0.49
101.25,0.49
102.27,0.48
103.29,0.48
104.32,0.48
105.37,0.47
106.42,0.47
107.48,0.47
108.56,0.46
109.64,0.46
110.74,0.45
111.85,0.44
112.97,0.44
114.10,0.43
115.24,0.42
116.39,0.41
117.55,0.41
118.73,0.40
119.92,0.39
121.12,0.39
122.33,0.38
123.55,0.37
124.79,0.37
126.03,0.37
127.29,0.37
128.57,0.36
129.85,0.36
131.15,0.35
132.46,0.35
133.79,0.35
135.12,0.35
136.48,0.34
137.84,0.34
139.22,0.34
140.61,0.34
142.02,0.33
143.44,0.33
144.87,0.33
146.32,0.34
147.78,0.34
149.26,0.34
150.75,0.34
152.26,0.34
153.78,0.34
155.32,0.34
156.88,0.34
158.44,0.33
160.03,0.33
161.63,0.33
163.24,0.32
164.88,0.32
166.53,0.31
168.19,0.31
169.87,0.31
171.57,0.30
173.29,0.30
175.02,0.29
176.77,0.29
178.54,0.29
180.32,0.29
182.13,0.29
183.95,0.29
185.79,0.29
187.65,0.29
189.52,0.28
191.42,0.28
193.33,0.28
195.27,0.28
197.22,0.29
199.19,0.29
201.18,0.29
203.19,0.29
205.23,0.29
207.28,0.29
209.35,0.29
211.44,0.29
213.56,0.29
215.69,0.30
217.85,0.30
220.03,0.30
222.23,0.31
224.45,0.31
226.70,0.31
228.96,0.31
231.25,0.31
233.57,0.31
235.90,0.31
238.26,0.31
240.64,0.31
243.05,0.30
245.48,0.30
247.93,0.30
250.41,0.29
252.92,0.29
255.45,0.29
258.00,0.28
260.58,0.28
263.19,0.27
265.82,0.27
268.48,0.26
271.16,0.26
273.87,0.26
276.61,0.26
279.38,0.25
282.17,0.25
284.99,0.25
287.84,0.24
290.72,0.24
293.63,0.24
296.57,0.24
299.53,0.24
302.53,0.23
305.55,0.23
308.61,0.23
311.69,0.23
314.81,0.22
317.96,0.22
321.14,0.22
324.35,0.21
327.59,0.21
330.87,0.20
334.18,0.20
337.52,0.20
340.90,0.19
344.30,0.19
347.75,0.18
351.23,0.18
354.74,0.17
358.28,0.17
361.87,0.17
365.49,0.17
369.14,0.17
372.83,0.17
376.56,0.17
380.33,0.17
384.13,0.17
387.97,0.17
391.85,0.16
395.77,0.16
399.73,0.16
403.72,0.16
407.76,0.16
411.84,0.16
415.96,0.15
420.12,0.15
424.32,0.15
428.56,0.15
432.85,0.14
437.18,0.14
441.55,0.14
445.96,0.14
450.42,0.14
454.93,0.14
459.48,0.14
464.07,0.13
468.71,0.13
473.40,0.13
478.13,0.13
482.91,0.13
487.74,0.13
492.62,0.13
497.55,0.12
502.52,0.12
507.55,0.12
512.62,0.13
517.75,0.13
522.93,0.13
528.16,0.13
533.44,0.12
538.77,0.12
544.16,0.12
549.60,0.13
555.10,0.13
560.65,0.13
566.25,0.13
571.92,0.13
577.64,0.13
583.41,0.13
589.25,0.13
595.14,0.13
601.09,0.13
607.10,0.13
613.17,0.13
619.30,0.13
625.50,0.14
631.75,0.14
638.07,0.14
644.45,0.15
650.89,0.15
657.40,0.15
663.98,0.16
670.62,0.16
677.32,0.16
684.10,0.17
690.94,0.17
697.85,0.17
704.83,0.17
711.87,0.17
718.99,0.17
726.18,0.17
733.44,0.17
740.78,0.17
748.19,0.17
755.67,0.17
763.23,0.18
770.86,0.18
778.57,0.18
786.35,0.19
794.22,0.19
802.16,0.20
810.18,0.21
818.28,0.21
826.46,0.22
834.73,0.23
843.08,0.24
851.51,0.25
860.02,0.26
868.62,0.27
877.31,0.28
886.08,0.29
894.94,0.30
903.89,0.30
912.93,0.31
922.06,0.31
931.28,0.32
940.59,0.32
950.00,0.33
959.50,0.33
969.09,0.34
978.78,0.34
988.57,0.34
998.46,0.34
1008.44,0.34
1018.53,0.33
1028.71,0.31
1039.00,0.30
1049.39,0.29
1059.88,0.28
1070.48,0.26
1081.19,0.24
1092.00,0.22
1102.92,0.19
1113.95,0.16
1125.09,0.13
1136.34,0.09
1147.70,0.06
1159.18,0.02
1170.77,-0.01
1182.48,-0.04
1194.30,-0.07
1206.25,-0.11
1218.31,-0.14
1230.49,-0.19
1242.80,-0.23
1255.22,-0.27
1267.78,-0.31
1280.45,-0.35
1293.26,-0.39
1306.19,-0.42
1319.25,-0.45
1332.45,-0.48
1345.77,-0.52
1359.23,-0.55
1372.82,-0.58
1386.55,-0.61
1400.41,-0.65
1414.42,-0.67
1428.56,-0.70
1442.85,-0.72
1457.28,-0.73
1471.85,-0.75
1486.57,-0.76
1501.43,-0.77
1516.45,-0.78
1531.61,-0.79
1546.93,-0.80
1562.40,-0.81
1578.02,-0.81
1593.80,-0.82
1609.74,-0.82
1625.84,-0.83
1642.10,-0.83
1658.52,-0.83
1675.10,-0.83
1691.85,-0.83
1708.77,-0.83
1725.86,-0.84
1743.12,-0.84
1760.55,-0.85
1778.15,-0.85
1795.94,-0.85
1813.90,-0.85
1832.03,-0.85
1850.36,-0.85
1868.86,-0.85
1887.55,-0.84
1906.42,-0.84
1925.49,-0.84
1944.74,-0.84
1964.19,-0.83
1983.83,-0.83
2003.67,-0.82
2023.71,-0.82
2043.94,-0.81
2064.38,-0.81
2085.03,-0.80
2105.88,-0.80
2126.94,-0.80
2148.20,-0.80
2169.69,-0.81
2191.38,-0.82
2213.30,-0.83
2235.43,-0.84
2257.78,-0.86
2280.36,-0.87
2303.17,-0.89
2326.20,-0.91
2349.46,-0.92
2372.95,-0.94
2396.68,-0.96
2420.65,-0.98
2444.86,-0.99
2469.31,-0.99
2494.00,-1.00
2518.94,-0.99
2544.13,-0.98
2569.57,-0.96
2595.27,-0.94
2621.22,-0.91
2647.43,-0.88
2673.90,-0.85
2700.64,-0.81
2727.65,-0.77
2754.93,-0.74
2782.48,-0.70
2810.30,-0.67
2838.40,-0.64
2866.79,-0.62
2895.46,-0.60
2924.41,-0.59
2953.65,-0.58
2983.19,-0.58
3013.02,-0.57
3043.15,-0.57
3073.58,-0.58
3104.32,-0.58
3135.36,-0.59
3166.72,-0.60
3198.38,-0.60
3230.37,-0.60
3262.67,-0.61
3295.30,-0.61
3328.25,-0.61
3361.53,-0.60
3395.15,-0.60
3429.10,-0.61
3463.39,-0.62
3498.03,-0.63
3533.01,-0.65
3568.34,-0.66
3604.02,-0.67
3640.06,-0.67
3676.46,-0.68
3713.22,-0.68
3750.36,-0.69
3787.86,-0.69
3825.74,-0.70
3864.00,-0.71
3902.64,-0.72
3941.66,-0.72
3981.08,-0.73
4020.89,-0.74
4061.10,-0.74
4101.71,-0.75
4142.73,-0.76
4184.15,-0.77
4226.00,-0.79
4268.26,-0.81
4310.94,-0.83
4354.05,-0.85
4397.59,-0.86
4441.56,-0.86
4485.98,-0.86
4530.84,-0.85
4576.15,-0.83
4621.91,-0.82
4668.13,-0.79
4714.81,-0.77
4761.96,-0.74
4809.58,-0.72
4857.67,-0.69
4906.25,-0.67
4955.31,-0.64
5004.87,-0.61
5054.91,-0.58
5105.46,-0.55
5156.52,-0.51
5208.08,-0.48
5260.16,-0.44
5312.77,-0.40
5365.89,-0.35
5419.55,-0.30
5473.75,-0.24
5528.49,-0.18
5583.77,-0.13
5639.61,-0.07
5696.00,-0.01
5752.96,0.04
5810.49,0.09
5868.60,0.13
5927.28,0.18
5986.56,0.22
6046.42,0.25
6106.89,0.28
6167.96,0.31
6229.64,0.34
6291.93,0.36
6354.85,0.37
6418.40,0.39
6482.58,0.40
6547.41,0.41
6612.88,0.43
6679.01,0.44
6745.80,0.46
6813.26,0.48
6881.39,0.51
6950.21,0.55
7019.71,0.60
7089.91,0.66
7160.81,0.74
7232.41,0.82
7304.74,0.91
7377.79,1.02
7451.56,1.12
7526.08,1.20
7601.34,1.28
7677.35,1.35
7754.13,1.40
7831.67,1.43
7909.98,1.44
7989.08,1.44
8068.98,1.42
8149.67,1.38
8231.16,1.32
8313.47,1.26
8396.61,1.20
8480.57,1.13
8565.38,1.07
8651.03,1.02
8737.54,0.97
8824.92,0.95
8913.17,0.93
9002.30,0.93
9092.32,0.95
9183.25,0.97
9275.08,0.99
9367.83,1.02
9461.51,1.07
9556.12,1.12
9651.68,1.19
9748.20,1.25
9845.68,1.32
9944.14,1.40
10043.58,1.49
10144.02,1.59
10245.46,1.70
10347.91,1.83
10451.39,1.97
10555.91,2.13
10661.46,2.32
10768.08,2.52
10875.76,2.74
10984.52,2.99
11094.36,3.25
11205.31,3.51
11317.36,3.76
11430.53,3.99
11544.84,4.18
11660.29,4.32
11776.89,4.40
11894.66,4.38
12013.60,4.27
12133.74,4.08
12255.08,3.81
12377.63,3.46
12501.41,3.06
12626.42,2.60
12752.68,2.12
12880.21,1.62
13009.01,1.15
13139.10,0.73
13270.49,0.39
13403.20,0.15
13537.23,0.02
13672.60,-0.01
13809.33,0.07
13947.42,0.22
14086.90,0.44
14227.77,0.70
14370.04,0.96
14513.74,1.20
14658.88,1.40
14805.47,1.52
14953.52,1.59
15103.06,1.59
15254.09,1.53
15406.63,1.39
15560.70,1.17
15716.30,0.88
15873.47,0.51
16032.20,0.08
16192.52,-0.39
16354.45,-0.88
16517.99,-1.36
16683.17,-1.80
16850.01,-2.21
17018.51,-2.57
17188.69,-2.89
17360.58,-3.16
17534.18,-3.38
17709.53,-3.56
17886.62,-3.72
18065.49,-3.96
18246.14,-4.18
18428.60,-4.40
18612.89,-4.60
18799.02,-4.79
18987.01,-4.97
19176.88,-5.13
19368.65,-5.29
19562.33,-5.44
19757.96,-5.57
19955.54,-5.69
