frequency,raw
20.00,0.86
20.20,0.82
20.40,0.78
20.61,0.75
20.81,0.72
21.02,0.69
21.23,0.67
21.44,0.65
21.66,0.63
21.87,0.62
22.09,0.61
22.31,0.60
22.54,0.61
22.76,0.62
22.99,0.63
23.22,0.64
23.45,0.65
23.69,0.66
23.92,0.66
24.16,0.67
24.40,0.68
24.65,0.69
24.89,0.70
25.14,0.71
25.39,0.71
25.65,0.72
25.91,0.72
26.16,0.73
26.43,0.73
26.69,0.73
26.96,0.73
27.23,0.73
27.50,0.73
27.77,0.73
28.05,0.73
28.33,0.73
28.62,0.74
28.90,0.74
29.19,0.74
29.48,0.74
29.78,0.74
30.08,0.74
30.38,0.75
30.68,0.75
30.99,0.75
31.30,0.75
31.61,0.75
31.93,0.74
32.24,0.74
32.57,0.74
32.89,0.73
33.22,0.73
33.55,0.72
33.89,0.72
34.23,0.72
34.57,0.72
34.92,0.72
35.27,0.72
35.62,0.71
35.97,0.71
36.33,0.72
36.70,0.72
37.06,0.72
37.43,0.72
37.81,0.72
38.19,0.72
38.57,0.72
38.95,0.72
39.34,0.71
39.74,0.70
40.14,0.70
40.54,0.70
40.94,0.70
41.35,0.70
41.76,0.70
42.18,0.71
42.60,0.71
43.03,0.71
43.46,0.72
43.90,0.72
44.33,0.73
44.78,0.74
45.23,0.75
45.68,0.77
46.13,0.80
46.60,0.82
47.06,0.84
47.53,0.86
48.01,0.87
48.49,0.88
48.97,0.89
49.46,0.90
49.96,0.90
50.46,0.90
50.96,0.89
51.47,0.88
51.99,0.86
52.51,0.84
53.03,0.82
53.56,0.79
54.10,0.76
54.64,0.74
55.18,0.71
55.74,0.70
56.29,0.70
56.86,0.70
57.42,0.70
58.00,0.71
58.58,0.71
59.16,0.72
59.76,0.72
60.35,0.72
60.96,0.72
61.57,0.72
62.18,0.72
62.80,0.72
63.43,0.72
64.07,0.72
64.71,0.71
65.35,0.71
66.01,0.70
66.67,0.69
67.33,0.68
68.01,0.68
68.69,0.67
69.37,0.67
70.07,0.66
70.77,0.66
71.48,0.66
72.19,0.65
72.91,0.64
73.64,0.64
74.38,0.63
75.12,0.63
75.87,0.62
76.63,0.62
77.40,0.61
78.17,0.60
78.95,0.59
79.74,0.59
80.54,0.58
81.35,0.57
82.16,0.57
82.98,0.57
83.81,0.58
84.65,0.59
85.50,0.60
86.35,0.61
87.22,0.61
88.09,0.61
88.97,0.60
89.86,0.60
90.76,0.59
91.66,0.58
92.58,0.56
93.51,0.54
94.44,0.52
95.39,0.49
96.34,0.46
97.30,0.43
98.28,0.40
99.26,0.37
100.25,0.35
101.25,0.33
102.27,0.32
103.29,0.31
104.32,0.31
105.37,0.31
106.42,0.30
107.48,0.29
108.56,0.27
109.64,0.25
110.74,0.23
111.85,0.21
112.97,0.19
114.10,0.16
115.24,0.14
116.39,0.11
117.55,0.09
118.73,0.05
119.92,0.02
121.12,-0.02
122.33,-0.05
123.55,-0.09
124.79,-0.12
126.03,-0.14
127.29,-0.18
128.57,-0.21
129.85,-0.24
131.15,-0.27
132.46,-0.30
133.79,-0.34
135.12,-0.37
136.48,-0.41
137.84,-0.46
139.22,-0.50
140.61,-0.53
142.02,-0.55
143.44,-0.57
144.87,-0.58
146.32,-0.58
147.78,-0.58
149.26,-0.57
150.75,-0.54
152.26,-0.51
153.78,-0.48
155.32,-0.45
156.88,-0.41
158.44,-0.38
160.03,-0.34
161.63,-0.31
163.24,-0.29
164.88,-0.27
166.53,-0.26
168.19,-0.26
169.87,-0.26
171.57,-0.28
173.29,-0.29
175.02,-0.31
176.77,-0.32
178.54,-0.33
180.32,-0.35
182.13,-0.37
183.95,-0.39
185.79,-0.41
187.65,-0.43
189.52,-0.45
191.42,-0.47
193.33,-0.50
195.27,-0.52
197.22,-0.54
199.19,-0.57
201.18,-0.59
203.19,-0.61
205.23,-0.64
207.28,-0.66
209.35,-0.68
211.44,-0.70
213.56,-0.72
215.69,-0.73
217.85,-0.74
220.03,-0.75
222.23,-0.76
224.45,-0.77
226.70,-0.78
228.96,-0.79
231.25,-0.80
233.57,-0.81
235.90,-0.83
238.26,-0.84
240.64,-0.85
243.05,-0.86
245.48,-0.88
247.93,-0.89
250.41,-0.91
252.92,-0.92
255.45,-0.93
258.00,-0.94
260.58,-0.95
263.19,-0.96
265.82,-0.96
268.48,-0.97
271.16,-0.97
273.87,-0.98
276.61,-0.98
279.38,-0.99
282.17,-0.99
284.99,-1.00
287.84,-1.01
290.72,-1.01
293.63,-1.02
296.57,-1.03
299.53,-1.04
302.53,-1.05
305.55,-1.06
308.61,-1.06
311.69,-1.06
314.81,-1.06
317.96,-1.05
321.14,-1.04
324.35,-1.03
327.59,-1.02
330.87,-1.00
334.18,-0.98
337.52,-0.96
340.90,-0.94
344.30,-0.92
347.75,-0.91
351.23,-0.89
354.74,-0.88
358.28,-0.87
361.87,-0.86
365.49,-0.85
369.14,-0.84
372.83,-0.84
376.56,-0.84
380.33,-0.84
384.13,-0.84
387.97,-0.84
391.85,-0.84
395.77,-0.84
399.73,-0.84
403.72,-0.83
407.76,-0.83
411.84,-0.83
415.96,-0.83
420.12,-0.84
424.32,-0.84
428.56,-0.84
432.85,-0.84
437.18,-0.83
441.55,-0.83
445.96,-0.83
450.42,-0.82
454.93,-0.82
459.48,-0.81
464.07,-0.80
468.71,-0.80
473.40,-0.79
478.13,-0.79
482.91,-0.78
487.74,-0.77
492.62,-0.77
497.55,-0.76
502.52,-0.76
507.55,-0.75
512.62,-0.74
517.75,-0.74
522.93,-0.73
528.16,-0.72
533.44,-0.71
538.77,-0.70
544.16,-0.70
549.60,-0.69
555.10,-0.68
560.65,-0.67
566.25,-0.66
571.92,-0.65
577.64,-0.64
583.41,-0.64
589.25,-0.63
595.14,-0.62
601.09,-0.61
607.10,-0.60
613.17,-0.59
619.30,-0.58
625.50,-0.57
631.75,-0.57
638.07,-0.56
644.45,-0.54
650.89,-0.53
657.40,-0.52
663.98,-0.51
670.62,-0.49
677.32,-0.48
684.10,-0.46
690.94,-0.44
697.85,-0.42
704.83,-0.40
711.87,-0.38
718.99,-0.36
726.18,-0.34
733.44,-0.32
740.78,-0.30
748.19,-0.28
755.67,-0.26
763.23,-0.24
770.86,-0.23
778.57,-0.21
786.35,-0.19
794.22,-0.18
802.16,-0.16
810.18,-0.15
818.28,-0.13
826.46,-0.11
834.73,-0.10
843.08,-0.08
851.51,-0.06
860.02,-0.05
868.62,-0.03
877.31,-0.01
886.08,0.01
894.94,0.02
903.89,0.03
912.93,0.05
922.06,0.06
931.28,0.08
940.59,0.09
950.00,0.10
959.50,0.11
969.09,0.12
978.78,0.13
988.57,0.13
998.46,0.13
1008.44,0.13
1018.53,0.12
1028.71,0.11
1039.00,0.09
1049.39,0.08
1059.88,0.06
1070.48,0.04
1081.19,0.02
1092.00,-0.01
1102.92,-0.04
1113.95,-0.08
1125.09,-0.12
1136.34,-0.16
1147.70,-0.20
1159.18,-0.24
1170.77,-0.28
1182.48,-0.32
1194.30,-0.35
1206.25,-0.39
1218.31,-0.43
1230.49,-0.47
1242.80,-0.51
1255.22,-0.56
1267.78,-0.60
1280.45,-0.64
1293.26,-0.67
1306.19,-0.70
1319.25,-0.73
1332.45,-0.75
1345.77,-0.78
1359.23,-0.81
1372.82,-0.83
1386.55,-0.86
1400.41,-0.88
1414.42,-0.90
1428.56,-0.92
1442.85,-0.94
1457.28,-0.95
1471.85,-0.95
1486.57,-0.96
1501.43,-0.96
1516.45,-0.97
1531.61,-0.97
1546.93,-0.97
1562.40,-0.97
1578.02,-0.98
1593.80,-0.98
1609.74,-0.98
1625.84,-0.98
1642.10,-0.98
1658.52,-0.97
1675.10,-0.97
1691.85,-0.97
1708.77,-0.97
1725.86,-0.97
1743.12,-0.97
1760.55,-0.97
1778.15,-0.97
1795.94,-0.96
1813.90,-0.95
1832.03,-0.94
1850.36,-0.94
1868.86,-0.93
1887.55,-0.92
1906.42,-0.92
1925.49,-0.91
1944.74,-0.91
1964.19,-0.90
1983.83,-0.90
2003.67,-0.89
2023.71,-0.88
2043.94,-0.88
2064.38,-0.87
2085.03,-0.85
2105.88,-0.84
2126.94,-0.83
2148.20,-0.82
2169.69,-0.80
2191.38,-0.79
2213.30,-0.77
2235.43,-0.76
2257.78,-0.75
2280.36,-0.73
2303.17,-0.72
2326.20,-0.71
2349.46,-0.70
2372.95,-0.68
2396.68,-0.67
2420.65,-0.66
2444.86,-0.65
2469.31,-0.63
2494.00,-0.62
2518.94,-0.60
2544.13,-0.58
2569.57,-0.56
2595.27,-0.54
2621.22,-0.52
2647.43,-0.50
2673.90,-0.48
2700.64,-0.46
2727.65,-0.44
2754.93,-0.42
2782.48,-0.39
2810.30,-0.36
2838.40,-0.33
2866.79,-0.29
2895.46,-0.25
2924.41,-0.21
2953.65,-0.16
2983.19,-0.11
3013.02,-0.05
3043.15,0.01
3073.58,0.07
3104.32,0.14
3135.36,0.20
3166.72,0.26
3198.38,0.32
3230.37,0.38
3262.67,0.43
3295.30,0.48
3328.25,0.53
3361.53,0.58
3395.15,0.62
3429.10,0.66
3463.39,0.70
3498.03,0.73
3533.01,0.76
3568.34,0.79
3604.02,0.82
3640.06,0.84
3676.46,0.87
3713.22,0.90
3750.36,0.92
3787.86,0.95
3825.74,0.97
3864.00,0.98
3902.64,1.00
3941.66,1.01
3981.08,1.03
4020.89,1.05
4061.10,1.07
4101.71,1.08
4142.73,1.10
4184.15,1.12
4226.00,1.13
4268.26,1.15
4310.94,1.15
4354.05,1.16
4397.59,1.16
4441.56,1.16
4485.98,1.16
4530.84,1.16
4576.15,1.16
4621.91,1.16
4668.13,1.16
4714.81,1.16
4761.96,1.15
4809.58,1.15
4857.67,1.15
4906.25,1.15
4955.31,1.16
5004.87,1.17
5054.91,1.18
5105.46,1.19
5156.52,1.21
5208.08,1.23
5260.16,1.25
5312.77,1.27
5365.89,1.28
5419.55,1.30
5473.75,1.32
5528.49,1.34
5583.77,1.36
5639.61,1.39
5696.00,1.41
5752.96,1.44
5810.49,1.47
5868.60,1.50
5927.28,1.54
5986.56,1.57
6046.42,1.60
6106.89,1.64
6167.96,1.68
6229.64,1.72
6291.93,1.77
6354.85,1.82
6418.40,1.88
6482.58,1.93
6547.41,2.00
6612.88,2.06
6679.01,2.13
6745.80,2.20
6813.26,2.28
6881.39,2.36
6950.21,2.45
7019.71,2.53
7089.91,2.62
7160.81,2.69
7232.41,2.76
7304.74,2.80
7377.79,2.85
7451.56,2.86
7526.08,2.83
7601.34,2.79
7677.35,2.73
7754.13,2.67
7831.67,2.60
7909.98,2.52
7989.08,2.44
8068.98,2.36
8149.67,2.28
8231.16,2.21
8313.47,2.15
8396.61,2.10
8480.57,2.06
8565.38,2.05
8651.03,2.05
8737.54,2.07
8824.92,2.10
8913.17,2.15
9002.30,2.21
9092.32,2.28
9183.25,2.37
9275.08,2.43
9367.83,2.51
9461.51,2.63
9556.12,2.76
9651.68,2.92
9748.20,3.08
9845.68,3.26
9944.14,3.45
10043.58,3.65
10144.02,3.85
10245.46,4.06
10347.91,4.27
10451.39,4.46
10555.91,4.66
10661.46,4.83
10768.08,5.00
10875.76,5.15
10984.52,5.29
11094.36,5.42
11205.31,5.55
11317.36,5.67
11430.53,5.80
11544.84,5.93
11660.29,6.06
11776.89,6.17
11894.66,6.22
12013.60,6.21
12133.74,6.14
12255.08,5.97
12377.63,5.69
12501.41,5.28
12626.42,4.73
12752.68,4.01
12880.21,3.15
13009.01,2.14
13139.10,1.05
13270.49,-0.08
13403.20,-1.24
13537.23,-2.39
13672.60,-3.46
13809.33,-4.43
13947.42,-5.24
14086.90,-5.86
14227.77,-6.27
14370.04,-6.44
14513.74,-6.34
14658.88,-5.98
14805.47,-5.37
14953.52,-4.49
15103.06,-3.37
15254.09,-2.07
15406.63,-0.66
15560.70,0.81
15716.30,2.26
15873.47,3.63
16032.20,4.85
16192.52,5.87
16354.45,6.69
16517.99,7.20
16683.17,7.36
16850.01,7.18
17018.51,6.65
17188.69,5.77
17360.58,4.59
17534.18,3.19
17709.53,1.62
17886.62,-0.03
18065.49,-1.19
18246.14,-2.40
18428.60,-3.66
18612.89,-4.98
18799.02,-6.35
18987.01,-7.77
19176.88,-9.24
19368.65,-10.77
19562.33,-12.35
19757.96,-13.98
19955.54,-15.66
