frequency,raw
20.00,1.48
20.20,1.45
20.40,1.42
20.61,1.40
20.81,1.37
21.02,1.35
21.23,1.32
21.44,1.30
21.66,1.28
21.87,1.26
22.09,1.25
22.31,1.23
22.54,1.22
22.76,1.20
22.99,1.19
23.22,1.18
23.45,1.17
23.69,1.15
23.92,1.14
24.16,1.13
24.40,1.12
24.65,1.11
24.89,1.10
25.14,1.09
25.39,1.08
25.65,1.06
25.91,1.05
26.16,1.04
26.43,1.03
26.69,1.02
26.96,1.02
27.23,1.01
27.50,1.00
27.77,0.99
28.05,0.98
28.33,0.98
28.62,0.97
28.90,0.96
29.19,0.95
29.48,0.95
29.78,0.94
30.08,0.93
30.38,0.92
30.68,0.91
30.99,0.90
31.30,0.89
31.61,0.87
31.93,0.86
32.24,0.85
32.57,0.84
32.89,0.82
33.22,0.81
33.55,0.80
33.89,0.78
34.23,0.77
34.57,0.76
34.92,0.74
35.27,0.73
35.62,0.72
35.97,0.71
36.33,0.70
36.70,0.70
37.06,0.69
37.43,0.68
37.81,0.67
38.19,0.66
38.57,0.65
38.95,0.64
39.34,0.62
39.74,0.61
40.14,0.60
40.54,0.60
40.94,0.59
41.35,0.58
41.76,0.58
42.18,0.58
42.60,0.57
43.03,0.57
43.46,0.57
43.90,0.57
44.33,0.57
44.78,0.57
45.23,0.56
45.68,0.56
46.13,0.55
46.60,0.55
47.06,0.54
47.53,0.53
48.01,0.52
48.49,0.51
48.97,0.51
49.46,0.50
49.96,0.49
50.46,0.49
50.96,0.48
51.47,0.48
51.99,0.48
52.51,0.47
53.03,0.47
53.56,0.47
54.10,0.46
54.64,0.46
55.18,0.46
55.74,0.45
56.29,0.45
56.86,0.45
57.42,0.44
58.00,0.44
58.58,0.44
59.16,0.43
59.76,0.43
60.35,0.42
60.96,0.41
61.57,0.41
62.18,0.40
62.80,0.39
63.43,0.38
64.07,0.38
64.71,0.37
65.35,0.36
66.01,0.36
66.67,0.35
67.33,0.34
68.01,0.34
68.69,0.33
69.37,0.32
70.07,0.32
70.77,0.31
71.48,0.30
72.19,0.29
72.91,0.28
73.64,0.28
74.38,0.27
75.12,0.27
75.87,0.26
76.63,0.26
77.40,0.25
78.17,0.24
78.95,0.24
79.74,0.23
80.54,0.23
81.35,0.22
82.16,0.22
82.98,0.21
83.81,0.20
84.65,0.20
85.50,0.19
86.35,0.19
87.22,0.18
88.09,0.17
88.97,0.17
89.86,0.17
90.76,0.17
91.66,0.16
92.58,0.16
93.51,0.16
94.44,0.15
95.39,0.15
96.34,0.14
97.30,0.14
98.28,0.13
99.26,0.12
100.25,0.11
101.25,0.11
102.27,0.10
103.29,0.10
104.32,0.09
105.37,0.09
106.42,0.08
107.48,0.08
108.56,0.07
109.64,0.07
110.74,0.06
111.85,0.06
112.97,0.05
114.10,0.05
115.24,0.05
116.39,0.04
117.55,0.04
118.73,0.03
119.92,0.03
121.12,0.02
122.33,0.01
123.55,0.01
124.79,-0.00
126.03,-0.01
127.29,-0.01
128.57,-0.02
129.85,-0.02
131.15,-0.03
132.46,-0.03
133.79,-0.04
135.12,-0.05
136.48,-0.05
137.84,-0.05
139.22,-0.05
140.61,-0.05
142.02,-0.06
143.44,-0.06
144.87,-0.06
146.32,-0.06
147.78,-0.07
149.26,-0.07
150.75,-0.08
152.26,-0.09
153.78,-0.10
155.32,-0.10
156.88,-0.11
158.44,-0.12
160.03,-0.14
161.63,-0.15
163.24,-0.16
164.88,-0.17
166.53,-0.18
168.19,-0.18
169.87,-0.19
171.57,-0.19
173.29,-0.20
175.02,-0.21
176.77,-0.22
178.54,-0.22
180.32,-0.23
182.13,-0.24
183.95,-0.25
185.79,-0.26
187.65,-0.27
189.52,-0.28
191.42,-0.29
193.33,-0.30
195.27,-0.31
197.22,-0.32
199.19,-0.32
201.18,-0.33
203.19,-0.33
205.23,-0.34
207.28,-0.34
209.35,-0.35
211.44,-0.35
213.56,-0.35
215.69,-0.35
217.85,-0.35
220.03,-0.35
222.23,-0.35
224.45,-0.35
226.70,-0.35
228.96,-0.35
231.25,-0.35
233.57,-0.35
235.90,-0.36
238.26,-0.36
240.64,-0.36
243.05,-0.36
245.48,-0.37
247.93,-0.37
250.41,-0.37
252.92,-0.38
255.45,-0.38
258.00,-0.38
260.58,-0.37
263.19,-0.37
265.82,-0.37
268.48,-0.37
271.16,-0.37
273.87,-0.36
276.61,-0.36
279.38,-0.35
282.17,-0.35
284.99,-0.35
287.84,-0.35
290.72,-0.34
293.63,-0.34
296.57,-0.34
299.53,-0.34
302.53,-0.34
305.55,-0.34
308.61,-0.33
311.69,-0.33
314.81,-0.33
317.96,-0.32
321.14,-0.32
324.35,-0.32
327.59,-0.32
330.87,-0.32
334.18,-0.32
337.52,-0.32
340.90,-0.32
344.30,-0.32
347.75,-0.32
351.23,-0.32
354.74,-0.32
358.28,-0.32
361.87,-0.32
365.49,-0.32
369.14,-0.33
372.83,-0.33
376.56,-0.33
380.33,-0.33
384.13,-0.33
387.97,-0.33
391.85,-0.33
395.77,-0.33
399.73,-0.33
403.72,-0.33
407.76,-0.33
411.84,-0.33
415.96,-0.33
420.12,-0.33
424.32,-0.33
428.56,-0.33
432.85,-0.33
437.18,-0.33
441.55,-0.33
445.96,-0.32
450.42,-0.32
454.93,-0.32
459.48,-0.32
464.07,-0.31
468.71,-0.31
473.40,-0.30
478.13,-0.30
482.91,-0.29
487.74,-0.29
492.62,-0.29
497.55,-0.28
502.52,-0.28
507.55,-0.28
512.62,-0.28
517.75,-0.27
522.93,-0.27
528.16,-0.27
533.44,-0.26
538.77,-0.26
544.16,-0.26
549.60,-0.26
555.10,-0.25
560.65,-0.25
566.25,-0.24
571.92,-0.24
577.64,-0.24
583.41,-0.24
589.25,-0.23
595.14,-0.23
601.09,-0.23
607.10,-0.22
613.17,-0.22
619.30,-0.21
625.50,-0.21
631.75,-0.20
638.07,-0.19
644.45,-0.18
650.89,-0.17
657.40,-0.16
663.98,-0.15
670.62,-0.14
677.32,-0.13
684.10,-0.12
690.94,-0.12
697.85,-0.11
704.83,-0.10
711.87,-0.09
718.99,-0.09
726.18,-0.08
733.44,-0.07
740.78,-0.07
748.19,-0.06
755.67,-0.06
763.23,-0.05
770.86,-0.05
778.57,-0.04
786.35,-0.04
794.22,-0.03
802.16,-0.02
810.18,-0.01
818.28,0.00
826.46,0.01
834.73,0.03
843.08,0.04
851.51,0.06
860.02,0.08
868.62,0.10
877.31,0.12
886.08,0.14
894.94,0.15
903.89,0.17
912.93,0.19
922.06,0.20
931.28,0.21
940.59,0.23
950.00,0.24
959.50,0.25
969.09,0.26
978.78,0.27
988.57,0.27
998.46,0.28
1008.44,0.27
1018.53,0.27
1028.71,0.26
1039.00,0.25
1049.39,0.24
1059.88,0.23
1070.48,0.21
1081.19,0.20
1092.00,0.18
1102.92,0.15
1113.95,0.12
1125.09,0.09
1136.34,0.06
1147.70,0.03
1159.18,-0.01
1170.77,-0.04
1182.48,-0.06
1194.30,-0.08
1206.25,-0.11
1218.31,-0.13
1230.49,-0.16
1242.80,-0.19
1255.22,-0.22
1267.78,-0.25
1280.45,-0.28
1293.26,-0.30
1306.19,-0.32
1319.25,-0.34
1332.45,-0.36
1345.77,-0.38
1359.23,-0.40
1372.82,-0.42
1386.55,-0.45
1400.41,-0.47
1414.42,-0.49
1428.56,-0.51
1442.85,-0.53
1457.28,-0.54
1471.85,-0.55
1486.57,-0.55
1501.43,-0.56
1516.45,-0.57
1531.61,-0.58
1546.93,-0.58
1562.40,-0.59
1578.02,-0.60
1593.80,-0.62
1609.74,-0.63
1625.84,-0.63
1642.10,-0.64
1658.52,-0.65
1675.10,-0.65
1691.85,-0.66
1708.77,-0.66
1725.86,-0.67
1743.12,-0.68
1760.55,-0.69
1778.15,-0.69
1795.94,-0.69
1813.90,-0.69
1832.03,-0.69
1850.36,-0.68
1868.86,-0.68
1887.55,-0.68
1906.42,-0.68
1925.49,-0.67
1944.74,-0.67
1964.19,-0.67
1983.83,-0.67
2003.67,-0.66
2023.71,-0.66
2043.94,-0.65
2064.38,-0.64
2085.03,-0.63
2105.88,-0.63
2126.94,-0.62
2148.20,-0.62
2169.69,-0.61
2191.38,-0.61
2213.30,-0.61
2235.43,-0.60
2257.78,-0.60
2280.36,-0.60
2303.17,-0.60
2326.20,-0.59
2349.46,-0.59
2372.95,-0.58
2396.68,-0.57
2420.65,-0.57
2444.86,-0.56
2469.31,-0.55
2494.00,-0.54
2518.94,-0.53
2544.13,-0.52
2569.57,-0.51
2595.27,-0.49
2621.22,-0.48
2647.43,-0.47
2673.90,-0.47
2700.64,-0.46
2727.65,-0.45
2754.93,-0.44
2782.48,-0.43
2810.30,-0.42
2838.40,-0.41
2866.79,-0.40
2895.46,-0.39
2924.41,-0.37
2953.65,-0.36
2983.19,-0.35
3013.02,-0.34
3043.15,-0.32
3073.58,-0.31
3104.32,-0.30
3135.36,-0.29
3166.72,-0.28
3198.38,-0.27
3230.37,-0.26
3262.67,-0.25
3295.30,-0.24
3328.25,-0.23
3361.53,-0.22
3395.15,-0.21
3429.10,-0.20
3463.39,-0.19
3498.03,-0.18
3533.01,-0.18
3568.34,-0.17
3604.02,-0.16
3640.06,-0.15
3676.46,-0.13
3713.22,-0.12
3750.36,-0.11
3787.86,-0.10
3825.74,-0.09
3864.00,-0.07
3902.64,-0.06
3941.66,-0.05
3981.08,-0.04
4020.89,-0.03
4061.10,-0.02
4101.71,-0.02
4142.73,-0.01
4184.15,-0.00
4226.00,-0.00
4268.26,-0.00
4310.94,-0.00
4354.05,0.00
4397.59,0.01
4441.56,0.02
4485.98,0.03
4530.84,0.04
4576.15,0.06
4621.91,0.08
4668.13,0.11
4714.81,0.13
4761.96,0.16
4809.58,0.18
4857.67,0.20
4906.25,0.22
4955.31,0.24
5004.87,0.26
5054.91,0.27
5105.46,0.29
5156.52,0.31
5208.08,0.33
5260.16,0.35
5312.77,0.38
5365.89,0.41
5419.55,0.44
5473.75,0.46
5528.49,0.49
5583.77,0.53
5639.61,0.56
5696.00,0.60
5752.96,0.64
5810.49,0.68
5868.60,0.72
5927.28,0.75
5986.56,0.78
6046.42,0.80
6106.89,0.83
6167.96,0.85
6229.64,0.87
6291.93,0.88
6354.85,0.90
6418.40,0.92
6482.58,0.95
6547.41,0.97
6612.88,1.01
6679.01,1.04
6745.80,1.07
6813.26,1.11
6881.39,1.16
6950.21,1.21
7019.71,1.27
7089.91,1.34
7160.81,1.42
7232.41,1.51
7304.74,1.60
7377.79,1.71
7451.56,1.80
7526.08,1.87
7601.34,1.93
7677.35,1.98
7754.13,2.01
7831.67,2.03
7909.98,2.03
7989.08,2.03
8068.98,2.01
8149.67,1.99
8231.16,1.96
8313.47,1.92
8396.61,1.89
8480.57,1.86
8565.38,1.83
8651.03,1.81
8737.54,1.81
8824.92,1.81
8913.17,1.83
9002.30,1.86
9092.32,1.89
9183.25,1.94
9275.08,1.96
9367.83,1.99
9461.51,2.03
9556.12,2.08
9651.68,2.13
9748.20,2.18
9845.68,2.23
9944.14,2.29
10043.58,2.35
10144.02,2.42
10245.46,2.49
10347.91,2.56
10451.39,2.63
10555.91,2.71
10661.46,2.77
10768.08,2.84
10875.76,2.90
10984.52,2.97
11094.36,3.03
11205.31,3.10
11317.36,3.17
11430.53,3.24
11544.84,3.28
11660.29,3.32
11776.89,3.32
11894.66,3.28
12013.60,3.19
12133.74,3.06
12255.08,2.89
12377.63,2.68
12501.41,2.44
12626.42,2.18
12752.68,1.90
12880.21,1.61
13009.01,1.33
13139.10,1.08
13270.49,0.85
13403.20,0.66
13537.23,0.53
13672.60,0.47
13809.33,0.49
13947.42,0.62
14086.90,0.84
14227.77,1.15
14370.04,1.53
14513.74,1.95
14658.88,2.39
14805.47,2.82
14953.52,3.22
15103.06,3.56
15254.09,3.83
15406.63,4.00
15560.70,4.07
15716.30,4.04
15873.47,3.90
16032.20,3.65
16192.52,3.30
16354.45,2.85
16517.99,2.31
16683.17,1.69
16850.01,1.01
17018.51,0.30
17188.69,-0.40
17360.58,-1.07
17534.18,-1.67
17709.53,-2.20
17886.62,-2.65
18065.49,-3.00
18246.14,-3.30
18428.60,-3.55
18612.89,-3.75
18799.02,-3.90
18987.01,-4.00
19176.88,-4.06
19368.65,-4.06
19562.33,-4.01
19757.96,-3.91
19955.54,-3.76
