frequency,raw
20.00,1.53
20.20,1.50
20.40,1.47
20.61,1.45
20.81,1.42
21.02,1.40
21.23,1.37
21.44,1.35
21.66,1.33
21.87,1.31
22.09,1.29
22.31,1.28
22.54,1.26
22.76,1.25
22.99,1.24
23.22,1.23
23.45,1.21
23.69,1.20
23.92,1.19
24.16,1.18
24.40,1.17
24.65,1.16
24.89,1.14
25.14,1.13
25.39,1.12
25.65,1.11
25.91,1.09
26.16,1.08
26.43,1.07
26.69,1.06
26.96,1.06
27.23,1.05
27.50,1.04
27.77,1.03
28.05,1.02
28.33,1.01
28.62,1.01
28.90,1.00
29.19,0.99
29.48,0.98
29.78,0.97
30.08,0.97
30.38,0.96
30.68,0.95
30.99,0.93
31.30,0.92
31.61,0.91
31.93,0.90
32.24,0.89
32.57,0.87
32.89,0.86
33.22,0.85
33.55,0.83
33.89,0.82
34.23,0.81
34.57,0.79
34.92,0.78
35.27,0.77
35.62,0.76
35.97,0.75
36.33,0.74
36.70,0.73
37.06,0.72
37.43,0.71
37.81,0.70
38.19,0.69
38.57,0.68
38.95,0.67
39.34,0.66
39.74,0.64
40.14,0.63
40.54,0.63
40.94,0.62
41.35,0.61
41.76,0.61
42.18,0.61
42.60,0.60
43.03,0.60
43.46,0.60
43.90,0.60
44.33,0.60
44.78,0.60
45.23,0.59
45.68,0.59
46.13,0.58
46.60,0.57
47.06,0.57
47.53,0.56
48.01,0.55
48.49,0.54
48.97,0.53
49.46,0.52
49.96,0.52
50.46,0.51
50.96,0.51
51.47,0.50
51.99,0.50
52.51,0.50
53.03,0.49
53.56,0.49
54.10,0.48
54.64,0.48
55.18,0.48
55.74,0.47
56.29,0.47
56.86,0.47
57.42,0.47
58.00,0.46
58.58,0.46
59.16,0.45
59.76,0.45
60.35,0.44
60.96,0.43
61.57,0.43
62.18,0.42
62.80,0.41
63.43,0.41
64.07,0.40
64.71,0.39
65.35,0.38
66.01,0.38
66.67,0.37
67.33,0.36
68.01,0.36
68.69,0.35
69.37,0.34
70.07,0.34
70.77,0.33
71.48,0.32
72.19,0.31
72.91,0.30
73.64,0.30
74.38,0.29
75.12,0.28
75.87,0.28
76.63,0.27
77.40,0.27
78.17,0.26
78.95,0.25
79.74,0.25
80.54,0.24
81.35,0.24
82.16,0.23
82.98,0.22
83.81,0.22
84.65,0.21
85.50,0.21
86.35,0.20
87.22,0.19
88.09,0.19
88.97,0.18
89.86,0.18
90.76,0.18
91.66,0.18
92.58,0.18
93.51,0.17
94.44,0.17
95.39,0.16
96.34,0.15
97.30,0.15
98.28,0.14
99.26,0.13
100.25,0.13
101.25,0.12
102.27,0.11
103.29,0.11
104.32,0.10
105.37,0.10
106.42,0.10
107.48,0.09
108.56,0.09
109.64,0.08
110.74,0.07
111.85,0.07
112.97,0.06
114.10,0.06
115.24,0.06
116.39,0.05
117.55,0.05
118.73,0.04
119.92,0.04
121.12,0.03
122.33,0.02
123.55,0.01
124.79,0.01
126.03,0.00
127.29,-0.00
128.57,-0.01
129.85,-0.01
131.15,-0.02
132.46,-0.03
133.79,-0.03
135.12,-0.04
136.48,-0.04
137.84,-0.04
139.22,-0.05
140.61,-0.05
142.02,-0.05
143.44,-0.05
144.87,-0.05
146.32,-0.05
147.78,-0.06
149.26,-0.07
150.75,-0.07
152.26,-0.08
153.78,-0.09
155.32,-0.10
156.88,-0.11
158.44,-0.12
160.03,-0.13
161.63,-0.14
163.24,-0.15
164.88,-0.16
166.53,-0.17
168.19,-0.18
169.87,-0.18
171.57,-0.19
173.29,-0.20
175.02,-0.20
176.77,-0.21
178.54,-0.22
180.32,-0.23
182.13,-0.24
183.95,-0.25
185.79,-0.26
187.65,-0.27
189.52,-0.28
191.42,-0.29
193.33,-0.30
195.27,-0.31
197.22,-0.31
199.19,-0.32
201.18,-0.33
203.19,-0.33
205.23,-0.34
207.28,-0.34
209.35,-0.34
211.44,-0.34
213.56,-0.35
215.69,-0.35
217.85,-0.35
220.03,-0.35
222.23,-0.35
224.45,-0.35
226.70,-0.35
228.96,-0.35
231.25,-0.35
233.57,-0.35
235.90,-0.36
238.26,-0.36
240.64,-0.36
243.05,-0.36
245.48,-0.37
247.93,-0.37
250.41,-0.37
252.92,-0.37
255.45,-0.37
258.00,-0.37
260.58,-0.37
263.19,-0.37
265.82,-0.37
268.48,-0.37
271.16,-0.36
273.87,-0.36
276.61,-0.36
279.38,-0.35
282.17,-0.35
284.99,-0.35
287.84,-0.35
290.72,-0.34
293.63,-0.34
296.57,-0.34
299.53,-0.34
302.53,-0.34
305.55,-0.34
308.61,-0.33
311.69,-0.33
314.81,-0.33
317.96,-0.32
321.14,-0.32
324.35,-0.32
327.59,-0.32
330.87,-0.32
334.18,-0.32
337.52,-0.32
340.90,-0.32
344.30,-0.32
347.75,-0.32
351.23,-0.32
354.74,-0.32
358.28,-0.32
361.87,-0.32
365.49,-0.33
369.14,-0.33
372.83,-0.33
376.56,-0.33
380.33,-0.33
384.13,-0.33
387.97,-0.33
391.85,-0.33
395.77,-0.33
399.73,-0.33
403.72,-0.33
407.76,-0.33
411.84,-0.33
415.96,-0.34
420.12,-0.34
424.32,-0.34
428.56,-0.34
432.85,-0.33
437.18,-0.33
441.55,-0.33
445.96,-0.33
450.42,-0.33
454.93,-0.32
459.48,-0.32
464.07,-0.32
468.71,-0.31
473.40,-0.31
478.13,-0.30
482.91,-0.30
487.74,-0.30
492.62,-0.29
497.55,-0.29
502.52,-0.29
507.55,-0.29
512.62,-0.28
517.75,-0.28
522.93,-0.28
528.16,-0.27
533.44,-0.27
538.77,-0.27
544.16,-0.26
549.60,-0.26
555.10,-0.26
560.65,-0.25
566.25,-0.25
571.92,-0.25
577.64,-0.24
583.41,-0.24
589.25,-0.24
595.14,-0.24
601.09,-0.23
607.10,-0.23
613.17,-0.22
619.30,-0.22
625.50,-0.21
631.75,-0.21
638.07,-0.20
644.45,-0.19
650.89,-0.18
657.40,-0.17
663.98,-0.16
670.62,-0.15
677.32,-0.14
684.10,-0.14
690.94,-0.13
697.85,-0.12
704.83,-0.11
711.87,-0.10
718.99,-0.10
726.18,-0.09
733.44,-0.08
740.78,-0.08
748.19,-0.07
755.67,-0.07
763.23,-0.06
770.86,-0.06
778.57,-0.05
786.35,-0.05
794.22,-0.04
802.16,-0.03
810.18,-0.02
818.28,-0.01
826.46,0.01
834.73,0.02
843.08,0.03
851.51,0.05
860.02,0.07
868.62,0.09
877.31,0.11
886.08,0.13
894.94,0.14
903.89,0.16
912.93,0.18
922.06,0.19
931.28,0.20
940.59,0.22
950.00,0.23
959.50,0.24
969.09,0.25
978.78,0.26
988.57,0.26
998.46,0.26
1008.44,0.26
1018.53,0.25
1028.71,0.24
1039.00,0.24
1049.39,0.23
1059.88,0.21
1070.48,0.20
1081.19,0.19
1092.00,0.17
1102.92,0.14
1113.95,0.11
1125.09,0.08
1136.34,0.05
1147.70,0.01
1159.18,-0.02
1170.77,-0.05
1182.48,-0.07
1194.30,-0.10
1206.25,-0.12
1218.31,-0.15
1230.49,-0.17
1242.80,-0.20
1255.22,-0.23
1267.78,-0.26
1280.45,-0.29
1293.26,-0.31
1306.19,-0.34
1319.25,-0.35
1332.45,-0.37
1345.77,-0.39
1359.23,-0.42
1372.82,-0.44
1386.55,-0.46
1400.41,-0.49
1414.42,-0.51
1428.56,-0.53
1442.85,-0.54
1457.28,-0.55
1471.85,-0.56
1486.57,-0.57
1501.43,-0.57
1516.45,-0.58
1531.61,-0.59
1546.93,-0.60
1562.40,-0.61
1578.02,-0.62
1593.80,-0.63
1609.74,-0.64
1625.84,-0.65
1642.10,-0.66
1658.52,-0.66
1675.10,-0.67
1691.85,-0.67
1708.77,-0.68
1725.86,-0.69
1743.12,-0.69
1760.55,-0.70
1778.15,-0.71
1795.94,-0.71
1813.90,-0.70
1832.03,-0.70
1850.36,-0.70
1868.86,-0.70
1887.55,-0.69
1906.42,-0.69
1925.49,-0.69
1944.74,-0.69
1964.19,-0.69
1983.83,-0.68
2003.67,-0.68
2023.71,-0.68
2043.94,-0.67
2064.38,-0.66
2085.03,-0.65
2105.88,-0.64
2126.94,-0.64
2148.20,-0.64
2169.69,-0.63
2191.38,-0.63
2213.30,-0.62
2235.43,-0.62
2257.78,-0.62
2280.36,-0.61
2303.17,-0.61
2326.20,-0.61
2349.46,-0.60
2372.95,-0.60
2396.68,-0.59
2420.65,-0.58
2444.86,-0.57
2469.31,-0.56
2494.00,-0.55
2518.94,-0.54
2544.13,-0.53
2569.57,-0.51
2595.27,-0.50
2621.22,-0.49
2647.43,-0.48
2673.90,-0.47
2700.64,-0.46
2727.65,-0.45
2754.93,-0.44
2782.48,-0.43
2810.30,-0.42
2838.40,-0.41
2866.79,-0.40
2895.46,-0.38
2924.41,-0.37
2953.65,-0.35
2983.19,-0.34
3013.02,-0.33
3043.15,-0.31
3073.58,-0.30
3104.32,-0.29
3135.36,-0.28
3166.72,-0.26
3198.38,-0.25
3230.37,-0.24
3262.67,-0.23
3295.30,-0.22
3328.25,-0.21
3361.53,-0.20
3395.15,-0.19
3429.10,-0.18
3463.39,-0.17
3498.03,-0.16
3533.01,-0.16
3568.34,-0.15
3604.02,-0.14
3640.06,-0.13
3676.46,-0.12
3713.22,-0.11
3750.36,-0.10
3787.86,-0.09
3825.74,-0.08
3864.00,-0.06
3902.64,-0.05
3941.66,-0.04
3981.08,-0.03
4020.89,-0.02
4061.10,-0.01
4101.71,0.00
4142.73,0.01
4184.15,0.02
4226.00,0.02
4268.26,0.03
4310.94,0.03
4354.05,0.03
4397.59,0.04
4441.56,0.04
4485.98,0.05
4530.84,0.07
4576.15,0.08
4621.91,0.10
4668.13,0.13
4714.81,0.15
4761.96,0.17
4809.58,0.20
4857.67,0.22
4906.25,0.23
4955.31,0.25
5004.87,0.27
5054.91,0.28
5105.46,0.30
5156.52,0.31
5208.08,0.33
5260.16,0.35
5312.77,0.38
5365.89,0.41
5419.55,0.43
5473.75,0.46
5528.49,0.49
5583.77,0.53
5639.61,0.56
5696.00,0.60
5752.96,0.65
5810.49,0.69
5868.60,0.73
5927.28,0.76
5986.56,0.80
6046.42,0.82
6106.89,0.84
6167.96,0.87
6229.64,0.88
6291.93,0.90
6354.85,0.92
6418.40,0.94
6482.58,0.96
6547.41,0.99
6612.88,1.02
6679.01,1.04
6745.80,1.08
6813.26,1.12
6881.39,1.16
6950.21,1.21
7019.71,1.27
7089.91,1.35
7160.81,1.42
7232.41,1.51
7304.74,1.60
7377.79,1.71
7451.56,1.80
7526.08,1.87
7601.34,1.93
7677.35,1.98
7754.13,2.01
7831.67,2.04
7909.98,2.04
7989.08,2.04
8068.98,2.02
8149.67,2.00
8231.16,1.97
8313.47,1.94
8396.61,1.90
8480.57,1.87
8565.38,1.85
8651.03,1.83
8737.54,1.82
8824.92,1.83
8913.17,1.84
9002.30,1.87
9092.32,1.91
9183.25,1.95
9275.08,1.98
9367.83,2.00
9461.51,2.04
9556.12,2.09
9651.68,2.14
9748.20,2.19
9845.68,2.24
9944.14,2.30
10043.58,2.36
10144.02,2.43
10245.46,2.50
10347.91,2.57
10451.39,2.64
10555.91,2.71
10661.46,2.78
10768.08,2.85
10875.76,2.91
10984.52,2.97
11094.36,3.03
11205.31,3.10
11317.36,3.17
11430.53,3.23
11544.84,3.28
11660.29,3.32
11776.89,3.33
11894.66,3.29
12013.60,3.21
12133.74,3.09
12255.08,2.93
12377.63,2.74
12501.41,2.51
12626.42,2.25
12752.68,1.98
12880.21,1.70
13009.01,1.42
13139.10,1.16
13270.49,0.92
13403.20,0.72
13537.23,0.58
13672.60,0.50
13809.33,0.51
13947.42,0.62
14086.90,0.82
14227.77,1.11
14370.04,1.47
14513.74,1.89
14658.88,2.32
14805.47,2.74
14953.52,3.14
15103.06,3.48
15254.09,3.76
15406.63,3.95
15560.70,4.03
15716.30,4.01
15873.47,3.88
16032.20,3.64
16192.52,3.30
16354.45,2.86
16517.99,2.32
16683.17,1.70
16850.01,1.02
17018.51,0.31
17188.69,-0.40
17360.58,-1.07
17534.18,-1.67
17709.53,-2.20
17886.62,-2.65
18065.49,-3.00
18246.14,-3.30
18428.60,-3.55
18612.89,-3.74
18799.02,-3.89
18987.01,-3.99
19176.88,-4.04
19368.65,-4.04
19562.33,-3.98
19757.96,-3.88
19955.54,-3.72
