frequency,raw
20.00,-0.19
20.20,-0.21
20.40,-0.23
20.61,-0.25
20.81,-0.27
21.02,-0.28
21.23,-0.30
21.44,-0.32
21.66,-0.33
21.87,-0.35
22.09,-0.36
22.31,-0.38
22.54,-0.40
22.76,-0.41
22.99,-0.43
23.22,-0.44
23.45,-0.45
23.69,-0.46
23.92,-0.47
24.16,-0.48
24.40,-0.49
24.65,-0.49
24.89,-0.50
25.14,-0.51
25.39,-0.51
25.65,-0.52
25.91,-0.52
26.16,-0.52
26.43,-0.53
26.69,-0.53
26.96,-0.54
27.23,-0.54
27.50,-0.55
27.77,-0.55
28.05,-0.55
28.33,-0.56
28.62,-0.56
28.90,-0.56
29.19,-0.56
29.48,-0.56
29.78,-0.56
30.08,-0.56
30.38,-0.57
30.68,-0.57
30.99,-0.57
31.30,-0.57
31.61,-0.57
31.93,-0.57
32.24,-0.57
32.57,-0.58
32.89,-0.58
33.22,-0.58
33.55,-0.58
33.89,-0.58
34.23,-0.58
34.57,-0.58
34.92,-0.58
35.27,-0.58
35.62,-0.58
35.97,-0.58
36.33,-0.58
36.70,-0.58
37.06,-0.58
37.43,-0.58
37.81,-0.58
38.19,-0.58
38.57,-0.58
38.95,-0.59
39.34,-0.59
39.74,-0.59
40.14,-0.59
40.54,-0.59
40.94,-0.59
41.35,-0.59
41.76,-0.60
42.18,-0.60
42.60,-0.60
43.03,-0.60
43.46,-0.60
43.90,-0.61
44.33,-0.61
44.78,-0.61
45.23,-0.61
45.68,-0.61
46.13,-0.61
46.60,-0.61
47.06,-0.61
47.53,-0.60
48.01,-0.60
48.49,-0.60
48.97,-0.60
49.46,-0.59
49.96,-0.59
50.46,-0.58
50.96,-0.58
51.47,-0.57
51.99,-0.56
52.51,-0.56
53.03,-0.55
53.56,-0.54
54.10,-0.53
54.64,-0.53
55.18,-0.52
55.74,-0.51
56.29,-0.50
56.86,-0.49
57.42,-0.48
58.00,-0.48
58.58,-0.47
59.16,-0.47
59.76,-0.46
60.35,-0.46
60.96,-0.45
61.57,-0.45
62.18,-0.45
62.80,-0.45
63.43,-0.45
64.07,-0.45
64.71,-0.45
65.35,-0.45
66.01,-0.45
66.67,-0.45
67.33,-0.46
68.01,-0.46
68.69,-0.46
69.37,-0.46
70.07,-0.46
70.77,-0.46
71.48,-0.46
72.19,-0.46
72.91,-0.47
73.64,-0.47
74.38,-0.47
75.12,-0.47
75.87,-0.48
76.63,-0.48
77.40,-0.48
78.17,-0.49
78.95,-0.50
79.74,-0.51
80.54,-0.52
81.35,-0.53
82.16,-0.54
82.98,-0.55
83.81,-0.56
84.65,-0.57
85.50,-0.58
86.35,-0.59
87.22,-0.60
88.09,-0.61
88.97,-0.62
89.86,-0.63
90.76,-0.64
91.66,-0.64
92.58,-0.65
93.51,-0.65
94.44,-0.66
95.39,-0.66
96.34,-0.67
97.30,-0.67
98.28,-0.68
99.26,-0.69
100.25,-0.69
101.25,-0.70
102.27,-0.71
103.29,-0.72
104.32,-0.73
105.37,-0.75
106.42,-0.76
107.48,-0.77
108.56,-0.79
109.64,-0.80
110.74,-0.81
111.85,-0.83
112.97,-0.84
114.10,-0.85
115.24,-0.86
116.39,-0.87
117.55,-0.88
118.73,-0.89
119.92,-0.90
121.12,-0.90
122.33,-0.91
123.55,-0.92
124.79,-0.92
126.03,-0.92
127.29,-0.93
128.57,-0.93
129.85,-0.93
131.15,-0.93
132.46,-0.93
133.79,-0.93
135.12,-0.93
136.48,-0.93
137.84,-0.93
139.22,-0.93
140.61,-0.93
142.02,-0.92
143.44,-0.92
144.87,-0.91
146.32,-0.91
147.78,-0.90
149.26,-0.89
150.75,-0.88
152.26,-0.88
153.78,-0.87
155.32,-0.86
156.88,-0.84
158.44,-0.83
160.03,-0.82
161.63,-0.81
163.24,-0.80
164.88,-0.79
166.53,-0.78
168.19,-0.77
169.87,-0.76
171.57,-0.75
173.29,-0.74
175.02,-0.74
176.77,-0.73
178.54,-0.72
180.32,-0.71
182.13,-0.71
183.95,-0.70
185.79,-0.70
187.65,-0.70
189.52,-0.69
191.42,-0.69
193.33,-0.69
195.27,-0.69
197.22,-0.69
199.19,-0.69
201.18,-0.69
203.19,-0.69
205.23,-0.69
207.28,-0.70
209.35,-0.70
211.44,-0.70
213.56,-0.71
215.69,-0.71
217.85,-0.71
220.03,-0.71
222.23,-0.71
224.45,-0.71
226.70,-0.71
228.96,-0.71
231.25,-0.71
233.57,-0.71
235.90,-0.70
238.26,-0.70
240.64,-0.69
243.05,-0.69
245.48,-0.68
247.93,-0.68
250.41,-0.67
252.92,-0.67
255.45,-0.66
258.00,-0.66
260.58,-0.66
263.19,-0.65
265.82,-0.65
268.48,-0.64
271.16,-0.64
273.87,-0.63
276.61,-0.63
279.38,-0.62
282.17,-0.62
284.99,-0.62
287.84,-0.61
290.72,-0.60
293.63,-0.60
296.57,-0.59
299.53,-0.58
302.53,-0.58
305.55,-0.57
308.61,-0.56
311.69,-0.55
314.81,-0.54
317.96,-0.54
321.14,-0.53
324.35,-0.52
327.59,-0.52
330.87,-0.51
334.18,-0.51
337.52,-0.50
340.90,-0.50
344.30,-0.50
347.75,-0.50
351.23,-0.50
354.74,-0.50
358.28,-0.50
361.87,-0.50
365.49,-0.50
369.14,-0.50
372.83,-0.49
376.56,-0.49
380.33,-0.48
384.13,-0.48
387.97,-0.47
391.85,-0.47
395.77,-0.46
399.73,-0.45
403.72,-0.44
407.76,-0.44
411.84,-0.43
415.96,-0.42
420.12,-0.41
424.32,-0.40
428.56,-0.40
432.85,-0.39
437.18,-0.38
441.55,-0.38
445.96,-0.37
450.42,-0.36
454.93,-0.36
459.48,-0.35
464.07,-0.34
468.71,-0.34
473.40,-0.33
478.13,-0.32
482.91,-0.31
487.74,-0.30
492.62,-0.29
497.55,-0.28
502.52,-0.27
507.55,-0.26
512.62,-0.25
517.75,-0.24
522.93,-0.23
528.16,-0.22
533.44,-0.21
538.77,-0.20
544.16,-0.19
549.60,-0.18
555.10,-0.18
560.65,-0.17
566.25,-0.16
571.92,-0.15
577.64,-0.14
583.41,-0.14
589.25,-0.13
595.14,-0.12
601.09,-0.11
607.10,-0.10
613.17,-0.08
619.30,-0.07
625.50,-0.06
631.75,-0.05
638.07,-0.04
644.45,-0.03
650.89,-0.03
657.40,-0.02
663.98,-0.01
670.62,-0.01
677.32,-0.01
684.10,-0.01
690.94,-0.01
697.85,-0.01
704.83,-0.01
711.87,-0.01
718.99,-0.02
726.18,-0.02
733.44,-0.02
740.78,-0.03
748.19,-0.03
755.67,-0.03
763.23,-0.03
770.86,-0.03
778.57,-0.02
786.35,-0.02
794.22,-0.02
802.16,-0.02
810.18,-0.01
818.28,-0.01
826.46,-0.01
834.73,-0.01
843.08,-0.00
851.51,-0.00
860.02,-0.01
868.62,-0.01
877.31,-0.01
886.08,-0.02
894.94,-0.02
903.89,-0.03
912.93,-0.04
922.06,-0.04
931.28,-0.05
940.59,-0.06
950.00,-0.07
959.50,-0.07
969.09,-0.08
978.78,-0.08
988.57,-0.09
998.46,-0.09
1008.44,-0.10
1018.53,-0.10
1028.71,-0.11
1039.00,-0.12
1049.39,-0.12
1059.88,-0.13
1070.48,-0.14
1081.19,-0.14
1092.00,-0.14
1102.92,-0.15
1113.95,-0.15
1125.09,-0.15
1136.34,-0.14
1147.70,-0.14
1159.18,-0.13
1170.77,-0.12
1182.48,-0.11
1194.30,-0.09
1206.25,-0.07
1218.31,-0.05
1230.49,-0.03
1242.80,-0.01
1255.22,0.02
1267.78,0.04
1280.45,0.06
1293.26,0.08
1306.19,0.10
1319.25,0.12
1332.45,0.14
1345.77,0.15
1359.23,0.16
1372.82,0.17
1386.55,0.18
1400.41,0.19
1414.42,0.19
1428.56,0.20
1442.85,0.20
1457.28,0.20
1471.85,0.21
1486.57,0.21
1501.43,0.22
1516.45,0.23
1531.61,0.24
1546.93,0.25
1562.40,0.27
1578.02,0.29
1593.80,0.31
1609.74,0.33
1625.84,0.35
1642.10,0.38
1658.52,0.40
1675.10,0.42
1691.85,0.44
1708.77,0.46
1725.86,0.49
1743.12,0.51
1760.55,0.53
1778.15,0.55
1795.94,0.57
1813.90,0.59
1832.03,0.61
1850.36,0.63
1868.86,0.66
1887.55,0.68
1906.42,0.70
1925.49,0.73
1944.74,0.75
1964.19,0.77
1983.83,0.79
2003.67,0.81
2023.71,0.82
2043.94,0.83
2064.38,0.84
2085.03,0.85
2105.88,0.86
2126.94,0.87
2148.20,0.88
2169.69,0.89
2191.38,0.90
2213.30,0.91
2235.43,0.92
2257.78,0.93
2280.36,0.94
2303.17,0.96
2326.20,0.97
2349.46,0.99
2372.95,1.00
2396.68,1.01
2420.65,1.03
2444.86,1.04
2469.31,1.05
2494.00,1.06
2518.94,1.06
2544.13,1.07
2569.57,1.07
2595.27,1.07
2621.22,1.07
2647.43,1.06
2673.90,1.06
2700.64,1.05
2727.65,1.04
2754.93,1.03
2782.48,1.02
2810.30,1.01
2838.40,0.99
2866.79,0.98
2895.46,0.96
2924.41,0.95
2953.65,0.93
2983.19,0.91
3013.02,0.89
3043.15,0.86
3073.58,0.83
3104.32,0.78
3135.36,0.73
3166.72,0.68
3198.38,0.61
3230.37,0.54
3262.67,0.47
3295.30,0.39
3328.25,0.31
3361.53,0.23
3395.15,0.15
3429.10,0.08
3463.39,0.00
3498.03,-0.07
3533.01,-0.14
3568.34,-0.21
3604.02,-0.28
3640.06,-0.35
3676.46,-0.42
3713.22,-0.49
3750.36,-0.56
3787.86,-0.64
3825.74,-0.72
3864.00,-0.80
3902.64,-0.88
3941.66,-0.97
3981.08,-1.05
4020.89,-1.13
4061.10,-1.20
4101.71,-1.27
4142.73,-1.34
4184.15,-1.40
4226.00,-1.46
4268.26,-1.52
4310.94,-1.58
4354.05,-1.63
4397.59,-1.69
4441.56,-1.74
4485.98,-1.79
4530.84,-1.85
4576.15,-1.90
4621.91,-1.96
4668.13,-2.02
4714.81,-2.08
4761.96,-2.14
4809.58,-2.21
4857.67,-2.27
4906.25,-2.33
4955.31,-2.40
5004.87,-2.46
5054.91,-2.53
5105.46,-2.59
5156.52,-2.65
5208.08,-2.72
5260.16,-2.77
5312.77,-2.83
5365.89,-2.87
5419.55,-2.91
5473.75,-2.93
5528.49,-2.94
5583.77,-2.94
5639.61,-2.91
5696.00,-2.87
5752.96,-2.81
5810.49,-2.73
5868.60,-2.63
5927.28,-2.51
5986.56,-2.37
6046.42,-2.21
6106.89,-2.04
6167.96,-1.86
6229.64,-1.68
6291.93,-1.48
6354.85,-1.29
6418.40,-1.09
6482.58,-0.89
6547.41,-0.70
6612.88,-0.52
6679.01,-0.34
6745.80,-0.16
6813.26,0.00
6881.39,0.16
6950.21,0.30
7019.71,0.45
7089.91,0.58
7160.81,0.71
7232.41,0.84
7304.74,0.97
7377.79,1.11
7451.56,1.25
7526.08,1.41
7601.34,1.59
7677.35,1.79
7754.13,2.03
7831.67,2.30
7909.98,2.63
7989.08,3.00
8068.98,3.42
8149.67,3.89
8231.16,4.39
8313.47,4.93
8396.61,5.47
8480.57,6.02
8565.38,6.54
8651.03,7.02
8737.54,7.44
8824.92,7.80
8913.17,8.07
9002.30,8.23
9092.32,8.30
9183.25,8.25
9275.08,8.08
9367.83,7.81
9461.51,7.43
9556.12,6.96
9651.68,6.41
9748.20,5.80
9845.68,5.15
9944.14,4.47
10043.58,3.79
10144.02,3.14
10245.46,2.51
10347.91,1.94
10451.39,1.44
10555.91,1.03
10661.46,0.71
10768.08,0.49
10875.76,0.36
10984.52,0.32
11094.36,0.34
11205.31,0.43
11317.36,0.54
11430.53,0.67
11544.84,0.80
11660.29,0.91
11776.89,0.98
11894.66,1.01
12013.60,1.00
12133.74,0.95
12255.08,0.86
12377.63,0.73
12501.41,0.57
12626.42,0.41
12752.68,0.26
12880.21,0.12
13009.01,0.02
13139.10,-0.04
13270.49,-0.04
13403.20,0.01
13537.23,0.11
13672.60,0.27
13809.33,0.49
13947.42,0.75
14086.90,1.06
14227.77,1.38
14370.04,1.71
14513.74,2.00
14658.88,2.25
14805.47,2.42
14953.52,2.50
15103.06,2.48
15254.09,2.35
15406.63,2.13
15560.70,1.83
15716.30,1.49
15873.47,1.12
16032.20,0.75
16192.52,0.42
16354.45,0.13
16517.99,-0.09
16683.17,-0.23
16850.01,-0.28
17018.51,-0.24
17188.69,-0.11
17360.58,0.10
17534.18,0.38
17709.53,0.70
17886.62,1.04
18065.49,1.24
18246.14,1.44
18428.60,1.64
18612.89,1.85
18799.02,2.06
18987.01,2.27
19176.88,2.49
19368.65,2.71
19562.33,2.94
19757.96,3.17
19955.54,3.40
